1.54056
2   0   4.4
2.02   0   4.4
2.04   0   4.4
2.06   0   4.4
2.08   0   4.4
2.1   0   4.4
2.12   0   4.4
2.14   0   4.4
2.16   0   4.4
2.18   0   4.4
2.2   0   4.4
2.22   0   4.4
2.24   0   4.4
2.26   0   4.4
2.28   0   4.4
2.3   0   4.4
2.32   0   4.4
2.34   0   4.4
2.36   0   4.4
2.38   0   4.4
2.4   0   4.4
2.42   0   4.4
2.44   0   4.4
2.46   0   4.4
2.48   0   4.4
2.5   0   4.4
2.52   0   4.4
2.54   0   4.4
2.56   0   4.4
2.58   0   4.4
2.6   0   4.4
2.62   0   4.4
2.64   0   4.4
2.66   0   4.4
2.68   0   4.4
2.7   0   4.4
2.72   0   4.4
2.74   0   4.4
2.76   0   4.4
2.78   0   4.4
2.8   0   4.4
2.82   0   4.4
2.84   0   4.4
2.86   0   4.4
2.88   0   4.4
2.9   0   4.4
2.92   0   4.4
2.94   0   4.4
2.96   0   4.4
2.98   0   4.4
3   0   4.4
3.02   0   4.4
3.04   0   4.4
3.06   0   4.4
3.08   0   4.4
3.1   0   4.4
3.12   0   4.4
3.14   0   4.4
3.16   0   4.4
3.18   0   4.4
3.2   0   4.4
3.22   0   4.4
3.24   0   4.4
3.26   0   4.4
3.28   0   4.4
3.3   0   4.4
3.32   0   4.4
3.34   0   4.4
3.36   0   4.4
3.38   0   4.4
3.4   0   4.4
3.42   0   4.4
3.44   0   4.4
3.46   0   4.4
3.48   0   4.4
3.5   0   4.4
3.52   0   4.4
3.54   0   4.4
3.56   0   4.4
3.58   0   4.4
3.6   0   4.4
3.62   0   4.4
3.64   0   4.4
3.66   0   4.4
3.68   0   4.4
3.7   0   4.4
3.72   0   4.4
3.74   0   4.4
3.76   0   4.4
3.78   0   4.4
3.8   0   4.4
3.82   0   4.4
3.84   0   4.4
3.86   0   4.4
3.88   0   4.4
3.9   0   4.4
3.92   0   4.4
3.94   0   4.4
3.96   0   4.4
3.98   0   4.4
4   0   4.4
4.02   0   4.4
4.04   0   4.4
4.06   0   4.4
4.08   0   4.4
4.1   0   4.4
4.12   0   4.4
4.14   0   4.4
4.16   0   4.4
4.18   0   4.4
4.2   0   4.4
4.22   0   4.4
4.24   0   4.4
4.26   0   4.4
4.28   0   4.4
4.3   0.665121   4.4
4.32   0.845284   4.4
4.34   1.1099   4.4
4.36   1.52133   4.4
4.38   2.21213   4.4
4.4   3.50652   4.4
4.42   6.3813   4.4
4.44   15.0087   4.4
4.46   66.9805   8.18416
4.48   739.545   27.1946
4.5   37.3686   6.11299
4.52   11.0789   4.4
4.54   5.20405   4.4
4.56   3.00797   4.4
4.58   1.95642   4.4
4.6   1.37321   4.4
4.62   1.01657   4.4
4.64   0.782737   4.4
4.66   0.621181   4.4
4.68   0   4.4
4.7   0   4.4
4.72   0   4.4
4.74   0   4.4
4.76   0   4.4
4.78   0   4.4
4.8   0   4.4
4.82   0   4.4
4.84   0   4.4
4.86   0   4.4
4.88   0   4.4
4.9   0   4.4
4.92   0   4.4
4.94   0   4.4
4.96   0   4.4
4.98   0   4.4
5   0   4.4
5.02   0   4.4
5.04   0   4.4
5.06   0   4.4
5.08   0   4.4
5.1   0   4.4
5.12   0   4.4
5.14   0   4.4
5.16   0   4.4
5.18   0   4.4
5.2   0   4.4
5.22   0   4.4
5.24   0   4.4
5.26   0   4.4
5.28   0   4.4
5.3   0   4.4
5.32   0   4.4
5.34   0   4.4
5.36   0   4.4
5.38   0   4.4
5.4   0   4.4
5.42   0   4.4
5.44   0   4.4
5.46   0   4.4
5.48   0   4.4
5.5   0   4.4
5.52   0   4.4
5.54   0.262118   4.4
5.56   0.297131   4.4
5.58   0.339658   4.4
5.6   0.392013   4.4
5.62   0.457474   4.4
5.64   0.540811   4.4
5.66   0.649175   4.4
5.68   0.793689   4.4
5.7   0.992415   4.4
5.72   1.27628   4.4
5.74   1.70186   4.4
5.76   2.38188   4.4
5.78   3.5681   4.4
5.8   5.9218   4.4
5.82   11.6748   4.4
5.84   32.6563   5.71457
5.86   289.868   17.0255
5.88   204.77   14.3098
5.9   28.8946   5.37537
5.92   10.8344   4.4
5.94   5.61263   4.4
5.96   3.42207   4.4
5.98   2.30174   4.4
6   1.65326   4.4
6.02   1.24462   4.4
6.04   0.970654   4.4
6.06   0.778096   4.4
6.08   0.637624   4.4
6.1   0.532017   4.4
6.12   0.450626   4.4
6.14   9.44986   4.4
6.16   11.7442   4.4
6.18   23.1992   4.81655
6.2   30.7634   5.54647
6.22   42.6472   6.53048
6.24   63.8745   7.99215
6.26   106.307   10.3105
6.28   212.477   14.5766
6.3   635.639   25.2119
6.32   9850.31   99.2487
6.34   10000   100
6.36   842.089   29.0188
6.38   241.612   15.5439
6.4   115.569   10.7503
6.42   67.9999   8.24621
6.44   44.8656   6.69818
6.46   31.8568   5.64418
6.48   23.8145   4.88001
6.5   18.5001   4.4
6.52   8.09344   4.4
6.54   0.177182   4.4
6.56   0.249202   4.4
6.58   0.37598   4.4
6.6   0.631063   4.4
6.62   1.26976   4.4
6.64   3.72466   4.4
6.66   41.9135   6.47406
6.68   15.8212   4.4
6.7   2.63626   4.4
6.72   1.0285   4.4
6.74   0.542516   4.4
6.76   0.334197   4.4
6.78   0.226283   4.4
6.8   0.163286   4.4
6.82   0.123346   4.4
6.84   0.0964482   4.4
6.86   0.0774756   4.4
6.88   0.0635958   4.4
6.9   0.0531368   4.4
6.92   0.0450604   4.4
6.94   0.0386945   4.4
6.96   0   4.4
6.98   0   4.4
7   0   4.4
7.02   0   4.4
7.04   0   4.4
7.06   0   4.4
7.08   0   4.4
7.1   0   4.4
7.12   0   4.4
7.14   0   4.4
7.16   0   4.4
7.18   0   4.4
7.2   0   4.4
7.22   0   4.4
7.24   0   4.4
7.26   0   4.4
7.28   0   4.4
7.3   0   4.4
7.32   0   4.4
7.34   0   4.4
7.36   0   4.4
7.38   0   4.4
7.4   0   4.4
7.42   0   4.4
7.44   0   4.4
7.46   0   4.4
7.48   0   4.4
7.5   0   4.4
7.52   0   4.4
7.54   0   4.4
7.56   0   4.4
7.58   0   4.4
7.6   0   4.4
7.62   0   4.4
7.64   0   4.4
7.66   0   4.4
7.68   0   4.4
7.7   0   4.4
7.72   0   4.4
7.74   0   4.4
7.76   0   4.4
7.78   0   4.4
7.8   0   4.4
7.82   0   4.4
7.84   0   4.4
7.86   0   4.4
7.88   3.59484   4.4
7.9   4.68599   4.4
7.92   6.36095   4.4
7.94   9.12419   4.4
7.96   14.1703   4.4
7.98   24.9227   4.99226
8   54.7649   7.40033
8.02   200.894   14.1737
8.04   4364.53   66.0646
8.06   240.41   15.5052
8.08   60.1522   7.75579
8.1   26.5456   5.15225
8.12   14.8589   4.4
8.14   9.47775   4.4
8.16   6.56585   4.4
8.18   4.81514   4.4
8.2   3.68141   4.4
8.22   0   4.4
8.24   0   4.4
8.26   0   4.4
8.28   0   4.4
8.3   0   4.4
8.32   0   4.4
8.34   0.163733   4.4
8.36   0.188713   4.4
8.38   0.219878   4.4
8.4   0.25945   4.4
8.42   0.31075   4.4
8.44   0.378913   4.4
8.46   0.472227   4.4
8.48   1.05208   4.4
8.5   1.38432   4.4
8.52   1.90317   4.4
8.54   2.78017   4.4
8.56   4.44178   4.4
8.58   8.2113   4.4
8.6   20.1285   4.48647
8.62   111.736   10.5705
8.64   675.058   25.9819
8.66   49.6636   7.04724
8.68   13.7953   4.4
8.7   6.40333   4.4
8.72   3.68928   4.4
8.74   2.39732   4.4
8.76   1.68239   4.4
8.78   1.24558   4.4
8.8   0.993656   4.4
8.82   0.437875   4.4
8.84   0.382126   4.4
8.86   0.354873   4.4
8.88   0.362086   4.4
8.9   0.433344   4.4
8.92   0.696558   4.4
8.94   2.10795   4.4
8.96   42.2848   6.50268
8.98   2.23625   4.4
9   0.56639   4.4
9.02   0.251024   4.4
9.04   0.140814   4.4
9.06   0.089934   4.4
9.08   0.0623569   4.4
9.1   0.0457583   4.4
9.12   0.0350006   4.4
9.14   0   4.4
9.16   0   4.4
9.18   0   4.4
9.2   0   4.4
9.22   0   4.4
9.24   0   4.4
9.26   0   4.4
9.28   0   4.4
9.3   0   4.4
9.32   0   4.4
9.34   0   4.4
9.36   0   4.4
9.38   0   4.4
9.4   0   4.4
9.42   0   4.4
9.44   0   4.4
9.46   0   4.4
9.48   0   4.4
9.5   0   4.4
9.52   0   4.4
9.54   0   4.4
9.56   0   4.4
9.58   0   4.4
9.6   0   4.4
9.62   0   4.4
9.64   0   4.4
9.66   0.887392   4.4
9.68   1.07788   4.4
9.7   1.32165   4.4
9.72   1.65866   4.4
9.74   2.14337   4.4
9.76   2.89056   4.4
9.78   4.07929   4.4
9.8   6.18945   4.4
9.82   10.4937   4.4
9.84   21.5447   4.64163
9.86   66.5451   8.15752
9.88   963.786   31.0449
9.9   195.529   13.9832
9.92   37.578   6.13009
9.94   15.4675   4.4
9.96   8.7388   4.4
9.98   6.59114   4.4
10   14.3122   4.4
10.02   16.2519   4.4
10.04   17.3306   4.4
10.06   3.25536   4.4
10.08   1.92647   4.4
10.1   1.43111   4.4
10.12   1.17588   4.4
10.14   0.347249   4.4
10.16   0.423633   4.4
10.18   0.659599   4.4
10.2   1.5109   4.4
10.22   6.65182   4.4
10.24   57.1247   7.55809
10.26   3.4828   4.4
10.28   1.46744   4.4
10.3   1.2347   4.4
10.32   1.60733   4.4
10.34   3.03566   4.4
10.36   10.126   4.4
10.38   204.186   14.2894
10.4   15.5306   4.4
10.42   3.64943   4.4
10.44   1.563   4.4
10.46   0.879204   4.4
10.48   0.571989   4.4
10.5   0.410733   4.4
10.52   0.318611   4.4
10.54   0.264622   4.4
10.56   0.148525   4.4
10.58   0.154273   4.4
10.6   0.12328   4.4
10.62   0.172553   4.4
10.64   0.258515   4.4
10.66   0.429117   4.4
10.68   0.855277   4.4
10.7   2.38025   4.4
10.72   21.1139   4.59499
10.74   14.7813   4.4
10.76   2.1188   4.4
10.78   0.831398   4.4
10.8   0.493093   4.4
10.82   0.453147   4.4
10.84   1.09627   4.4
10.86   9.69352   4.4
10.88   0.58538   4.4
10.9   0.224871   4.4
10.92   0.149753   4.4
10.94   0.114282   4.4
10.96   0.0977847   4.4
10.98   0.0909643   4.4
11   0.0908675   4.4
11.02   0.0970666   4.4
11.04   0.110949   4.4
11.06   0.129574   4.4
11.08   0.160052   4.4
11.1   0.252046   4.4
11.12   0.458255   4.4
11.14   1.12139   4.4
11.16   8.9555   4.4
11.18   18.4225   4.4
11.2   6.90532   4.4
11.22   1.22607   4.4
11.24   0.499224   4.4
11.26   0.270651   4.4
11.28   0.169878   4.4
11.3   0.116591   4.4
11.32   0.084996   4.4
11.34   0.0647201   4.4
11.36   0.0509309   4.4
11.38   0.0411269   4.4
11.4   0.0339066   4.4
11.42   0.0284352   4.4
11.44   0.018015   4.4
11.46   0.0154682   4.4
11.48   0   4.4
11.5   0.0682281   4.4
11.52   0.0804066   4.4
11.54   0.0961618   4.4
11.56   0.653896   4.4
11.58   0.821434   4.4
11.6   1.06271   4.4
11.62   1.42833   4.4
11.64   2.02115   4.4
11.66   3.07743   4.4
11.68   5.2449   4.4
11.7   10.8769   4.4
11.72   34.6452   5.88602
11.74   591.235   24.3153
11.76   140.794   11.8657
11.78   19.5995   4.42713
11.8   7.69634   4.4
11.82   4.09359   4.4
11.84   2.53728   4.4
11.86   1.72574   4.4
11.88   1.24952   4.4
11.9   0.94865   4.4
11.92   0.744205   4.4
11.94   0.62067   4.4
11.96   0.131639   4.4
11.98   0.120513   4.4
12   0.115728   4.4
12.02   0.0555714   4.4
12.04   0.0735122   4.4
12.06   0.101781   4.4
12.08   0.150142   4.4
12.1   0.243357   4.4
12.12   0.460538   4.4
12.14   1.18115   4.4
12.16   7.9127   4.4
12.18   23.4446   4.84196
12.2   1.95809   4.4
12.22   0.803544   4.4
12.24   0.545475   4.4
12.26   0.482764   4.4
12.28   0.516348   4.4
12.3   0.595704   4.4
12.32   0.742359   4.4
12.34   0.992887   4.4
12.36   1.4369   4.4
12.38   2.30863   4.4
12.4   4.84017   4.4
12.42   11.8252   4.4
12.44   72.6382   8.5228
12.46   158.438   12.5872
12.48   16.7188   4.4
12.5   6.47382   4.4
12.52   4.48653   4.4
12.54   4.042   4.4
12.56   4.48794   4.4
12.58   5.8723   4.4
12.6   9.01089   4.4
12.62   17.0365   4.4
12.64   47.6256   6.90113
12.66   530.957   23.0425
12.68   196.264   14.0094
12.7   374.67   19.3564
12.72   48.1963   6.94236
12.74   14.3146   4.4
12.76   7.20926   4.4
12.78   4.45366   4.4
12.8   3.04787   4.4
12.82   2.22471   4.4
12.84   1.69839   4.4
12.86   1.34044   4.4
12.88   1.08553   4.4
12.9   0.622133   4.4
12.92   0.527683   4.4
12.94   0.453213   4.4
12.96   0   4.4
12.98   0   4.4
13   0   4.4
13.02   0   4.4
13.04   0   4.4
13.06   0   4.4
13.08   0   4.4
13.1   0   4.4
13.12   0   4.4
13.14   0   4.4
13.16   0   4.4
13.18   0.00188307   4.4
13.2   0.00239153   4.4
13.22   0.0031375   4.4
13.24   0.00429556   4.4
13.26   0.00623588   4.4
13.28   0.00986033   4.4
13.3   0.102552   4.4
13.32   0.152591   4.4
13.34   0.332772   4.4
13.36   2.49733   4.4
13.38   0.455792   4.4
13.4   0.65303   4.4
13.42   1.44057   4.4
13.44   5.92917   4.4
13.46   93.3179   9.66012
13.48   5.54095   4.4
13.5   2.86817   4.4
13.52   2.83519   4.4
13.54   3.6302   4.4
13.56   5.6025   4.4
13.58   9.96543   4.4
13.6   22.8993   4.78532
13.62   100.257   10.0129
13.64   1125.21   33.5441
13.66   57.7806   7.60136
13.68   19.5135   4.41741
13.7   17.2799   4.4
13.72   186.759   13.666
13.74   114.829   10.7158
13.76   9.60952   4.4
13.78   3.9784   4.4
13.8   2.43561   4.4
13.82   1.73408   4.4
13.84   0.697505   4.4
13.86   0.638985   4.4
13.88   0.677555   4.4
13.9   0.727687   4.4
13.92   1.14034   4.4
13.94   2.66148   4.4
13.96   15.4538   4.4
13.98   23.9867   4.89763
14   122.562   11.0708
14.02   8.84481   4.4
14.04   2.48454   4.4
14.06   1.4605   4.4
14.08   3.90599   4.4
14.1   6.9851   4.4
14.12   1.24284   4.4
14.14   1.22079   4.4
14.16   3.37643   4.4
14.18   36.5754   6.04776
14.2   42.9197   6.55131
14.22   3.46424   4.4
14.24   0.962514   4.4
14.26   0.47657   4.4
14.28   0.307255   4.4
14.3   0.250041   4.4
14.32   0.340821   4.4
14.34   4.30924   4.4
14.36   0.476385   4.4
14.38   0.0952587   4.4
14.4   0.0401693   4.4
14.42   0.0219844   4.4
14.44   0.0138362   4.4
14.46   0.00950057   4.4
14.48   0.00692354   4.4
14.5   0.00526848   4.4
14.52   0.00414291   4.4
14.54   0   4.4
14.56   0   4.4
14.58   0   4.4
14.6   0   4.4
14.62   0   4.4
14.64   0   4.4
14.66   0   4.4
14.68   0   4.4
14.7   0   4.4
14.72   0   4.4
14.74   0   4.4
14.76   0   4.4
14.78   0   4.4
14.8   0   4.4
14.82   8.46674e-05   4.4
14.84   0.0682433   4.4
14.86   0.278068   4.4
14.88   0.356144   4.4
14.9   0.473559   4.4
14.92   0.662626   4.4
14.94   0.997861   4.4
14.96   1.68589   4.4
14.98   3.54407   4.4
15   11.7828   4.4
15.02   234.393   15.3099
15.04   70.8534   8.41745
15.06   11.8682   4.4
15.08   3.64762   4.4
15.1   2.51285   4.4
15.12   4.44034   4.4
15.14   49.21   7.01498
15.16   4.89937   4.4
15.18   19.2557   4.4
15.2   17.2386   4.4
15.22   2.42898   4.4
15.24   0.970951   4.4
15.26   0.489748   4.4
15.28   0.306987   4.4
15.3   0.211229   4.4
15.32   0.121524   4.4
15.34   0.0913685   4.4
15.36   0.0756528   4.4
15.38   0.0628639   4.4
15.4   0.0546674   4.4
15.42   0.0504517   4.4
15.44   0.0510231   4.4
15.46   0.0604789   4.4
15.48   0.0977211   4.4
15.5   0.315772   4.4
15.52   5.26411   4.4
15.54   0.257792   4.4
15.56   0.0659984   4.4
15.58   0.0300855   4.4
15.6   0.0171204   4.4
15.62   0.0110296   4.4
15.64   0.00769202   4.4
15.66   0.005668   4.4
15.68   0.00434901   4.4
15.7   0   4.4
15.72   0   4.4
15.74   0   4.4
15.76   0   4.4
15.78   0   4.4
15.8   0   4.4
15.82   0.127346   4.4
15.84   0.148238   4.4
15.86   0.17473   4.4
15.88   0.209017   4.4
15.9   0.254486   4.4
15.92   0.316588   4.4
15.94   0.404549   4.4
15.96   0.597529   4.4
15.98   0.960074   4.4
16   1.3755   4.4
16.02   2.15003   4.4
16.04   3.88459   4.4
16.06   9.35291   4.4
16.08   51.4059   7.16979
16.1   149.641   12.2328
16.12   81.1082   9.00601
16.14   17.0758   4.4
16.16   170.086   13.0417
16.18   17.7715   4.4
16.2   5.83675   4.4
16.22   6.13459   4.4
16.24   1.85144   4.4
16.26   1.25712   4.4
16.28   1.0124   4.4
16.3   0.863956   4.4
16.32   0.879476   4.4
16.34   0.995518   4.4
16.36   1.17069   4.4
16.38   1.85385   4.4
16.4   7.59978   4.4
16.42   14.3104   4.4
16.44   36.6643   6.0551
16.46   52.3926   7.23827
16.48   89.398   9.45505
16.5   9.20762   4.4
16.52   3.92083   4.4
16.54   2.76066   4.4
16.56   2.75304   4.4
16.58   3.72395   4.4
16.6   7.09538   4.4
16.62   27.0068   5.1968
16.64   402.658   20.0663
16.66   129.882   11.3966
16.68   12.0024   4.4
16.7   6.45869   4.4
16.72   32.2116   5.67552
16.74   8.27724   4.4
16.76   2.24425   4.4
16.78   1.20916   4.4
16.8   0.829054   4.4
16.82   0.381732   4.4
16.84   0.342633   4.4
16.86   0.307833   4.4
16.88   0.559715   4.4
16.9   2.16521   4.4
16.92   22.1107   4.7022
16.94   1.66744   4.4
16.96   8.0048   4.4
16.98   0.51252   4.4
17   0.191524   4.4
17.02   0.105592   4.4
17.04   0.0685282   4.4
17.06   0.0637841   4.4
17.08   0.054228   4.4
17.1   0.0490564   4.4
17.12   0.0317904   4.4
17.14   0.0295323   4.4
17.16   0.0354903   4.4
17.18   0.0434669   4.4
17.2   0.0545033   4.4
17.22   0.0704301   4.4
17.24   0.09476   4.4
17.26   0.135207   4.4
17.28   0.213762   4.4
17.3   0.47103   4.4
17.32   1.15604   4.4
17.34   1.94394   4.4
17.36   9.76213   4.4
17.38   17.2809   4.4
17.4   1.80342   4.4
17.42   0.639931   4.4
17.44   0.326453   4.4
17.46   0.199679   4.4
17.48   0.136844   4.4
17.5   0.102017   4.4
17.52   0.0818155   4.4
17.54   0.0706871   4.4
17.56   0.0671947   4.4
17.58   0.0712029   4.4
17.6   0.0883196   4.4
17.62   0.140182   4.4
17.64   0.397152   4.4
17.66   2.80078   4.4
17.68   2.2954   4.4
17.7   0.44336   4.4
17.72   0.346255   4.4
17.74   0.478089   4.4
17.76   0.992946   4.4
17.78   3.97094   4.4
17.8   61.7174   7.85604
17.82   3.15048   4.4
17.84   1.4873   4.4
17.86   0.58651   4.4
17.88   0.482677   4.4
17.9   0.594198   4.4
17.92   1.21363   4.4
17.94   12.9768   4.4
17.96   10.0211   4.4
17.98   47.0108   6.85644
18   2.56701   4.4
18.02   0.803941   4.4
18.04   0.39159   4.4
18.06   0.232125   4.4
18.08   0.153801   4.4
18.1   0.109496   4.4
18.12   0.0740012   4.4
18.14   0.0572164   4.4
18.16   0.0455608   4.4
18.18   0.00460785   4.4
18.2   0   4.4
18.22   0   4.4
18.24   0   4.4
18.26   0   4.4
18.28   0.00139241   4.4
18.3   0.00162648   4.4
18.32   0.00192495   4.4
18.34   0.00231376   4.4
18.36   0.0654504   4.4
18.38   0.100381   4.4
18.4   0.186166   4.4
18.42   0.246911   4.4
18.44   0.350297   4.4
18.46   0.554903   4.4
18.48   1.07983   4.4
18.5   3.40698   4.4
18.52   67.658   8.22545
18.54   6.60701   4.4
18.56   2.19723   4.4
18.58   1.38802   4.4
18.6   1.73006   4.4
18.62   3.52016   4.4
18.64   17.4104   4.4
18.66   62.5179   7.90682
18.68   6.52075   4.4
18.7   7.51124   4.4
18.72   45.2441   6.72637
18.74   27.2595   5.22106
18.76   9.13854   4.4
18.78   24.2581   4.92525
18.8   2.22278   4.4
18.82   1.10795   4.4
18.84   0.806861   4.4
18.86   0.704082   4.4
18.88   0.694551   4.4
18.9   1.2217   4.4
18.92   1.41573   4.4
18.94   1.82041   4.4
18.96   2.56954   4.4
18.98   4.71579   4.4
19   7.03474   4.4
19.02   18.0368   4.4
19.04   116.434   10.7905
19.06   102.673   10.1328
19.08   43.2109   6.5735
19.1   504.859   22.4691
19.12   78.4377   8.85651
19.14   16.9311   4.4
19.16   7.55894   4.4
19.18   8.50659   4.4
19.2   4.57584   4.4
19.22   2.19956   4.4
19.24   1.47688   4.4
19.26   1.1181   4.4
19.28   0.884844   4.4
19.3   0.720493   4.4
19.32   0.59955   4.4
19.34   0.154989   4.4
19.36   0.134233   4.4
19.38   0.120695   4.4
19.4   0.0132566   4.4
19.42   0.0158016   4.4
19.44   0.0184244   4.4
19.46   0.0245039   4.4
19.48   0.0344594   4.4
19.5   0.0512531   4.4
19.52   0.0842151   4.4
19.54   0.193574   4.4
19.56   0.476106   4.4
19.58   3.40209   4.4
19.6   3.84955   4.4
19.62   0.58649   4.4
19.64   0.321325   4.4
19.66   0.278844   4.4
19.68   0.303215   4.4
19.7   0.378843   4.4
19.72   0.536632   4.4
19.74   0.929093   4.4
19.76   2.46073   4.4
19.78   34.6309   5.88481
19.8   4.61749   4.4
19.82   22.1714   4.70865
19.84   45.2096   6.72381
19.86   22.2493   4.71692
19.88   3.87064   4.4
19.9   1.97216   4.4
19.92   2.21965   4.4
19.94   12.7583   4.4
19.96   9.74015   4.4
19.98   1.76319   4.4
20   4.54295   4.4
20.02   0.725658   4.4
20.04   0.542923   4.4
20.06   0.676635   4.4
20.08   1.76427   4.4
20.1   19.9958   4.47166
20.12   2.98736   4.4
20.14   33.0833   5.75181
20.16   2.97107   4.4
20.18   0.733713   4.4
20.2   0.341291   4.4
20.22   0.202406   4.4
20.24   0.136699   4.4
20.26   0.100489   4.4
20.28   0.0753028   4.4
20.3   0.0564732   4.4
20.32   0.0631538   4.4
20.34   0.130841   4.4
20.36   0.583372   4.4
20.38   0.0606648   4.4
20.4   0.0426554   4.4
20.42   0.0438823   4.4
20.44   0.0536395   4.4
20.46   0.0825535   4.4
20.48   0.112238   4.4
20.5   0.166062   4.4
20.52   0.283347   4.4
20.54   0.710791   4.4
20.56   2.99067   4.4
20.58   11.3772   4.4
20.6   8.54933   4.4
20.62   1.48761   4.4
20.64   0.619713   4.4
20.66   0.596243   4.4
20.68   1.30606   4.4
20.7   14.7039   4.4
20.72   3.99291   4.4
20.74   1.53967   4.4
20.76   1.73375   4.4
20.78   0.445699   4.4
20.8   0.356902   4.4
20.82   0.466996   4.4
20.84   2.15683   4.4
20.86   1.48246   4.4
20.88   0.701155   4.4
20.9   0.913375   4.4
20.92   1.68596   4.4
20.94   4.62913   4.4
20.96   44.6908   6.68512
20.98   29.0601   5.39074
21   4.21385   4.4
21.02   2.94158   4.4
21.04   14.1574   4.4
21.06   2.95247   4.4
21.08   1.43222   4.4
21.1   9.42021   4.4
21.12   0.692864   4.4
21.14   0.309511   4.4
21.16   0.19502   4.4
21.18   0.140744   4.4
21.2   0.109246   4.4
21.22   0.0881597   4.4
21.24   0.0619319   4.4
21.26   0.0525306   4.4
21.28   0.00105279   4.4
21.3   0.512139   4.4
21.32   0.62263   4.4
21.34   0.773848   4.4
21.36   0.988258   4.4
21.38   1.30905   4.4
21.4   1.81992   4.4
21.42   2.71146   4.4
21.44   4.51343   4.4
21.46   9.04754   4.4
21.48   27.607   5.25423
21.5   448.112   21.1687
21.52   67.4038   8.20998
21.54   51.0329   7.14373
21.56   147.35   12.1388
21.58   13.9283   4.4
21.6   5.5135   4.4
21.62   3.11543   4.4
21.64   2.08477   4.4
21.66   1.59148   4.4
21.68   1.3263   4.4
21.7   1.24221   4.4
21.72   1.05082   4.4
21.74   3.67961   4.4
21.76   3.26688   4.4
21.78   19.6897   4.43731
21.8   30.9051   5.55923
21.82   52.9862   7.27917
21.84   4.87278   4.4
21.86   1.64638   4.4
21.88   0.926632   4.4
21.9   0.833579   4.4
21.92   1.07506   4.4
21.94   1.58478   4.4
21.96   1.2241   4.4
21.98   0.979419   4.4
22   2.30473   4.4
22.02   36.7879   6.0653
22.04   8.19296   4.4
22.06   29.099   5.39435
22.08   2.15469   4.4
22.1   0.788744   4.4
22.12   0.427023   4.4
22.14   0.263928   4.4
22.16   0.192264   4.4
22.18   0.146682   4.4
22.2   0.151521   4.4
22.22   0.144514   4.4
22.24   0.242349   4.4
22.26   0.864009   4.4
22.28   8.35135   4.4
22.3   0.980316   4.4
22.32   0.414887   4.4
22.34   0.397621   4.4
22.36   0.508218   4.4
22.38   0.785589   4.4
22.4   1.52577   4.4
22.42   4.81198   4.4
22.44   94.0875   9.69987
22.46   8.686   4.4
22.48   40.0964   6.33217
22.5   22.8947   4.78485
22.52   8.933   4.4
22.54   1.83509   4.4
22.56   0.874109   4.4
22.58   0.581177   4.4
22.6   0.488742   4.4
22.62   0.442958   4.4
22.64   0.640394   4.4
22.66   1.44911   4.4
22.68   15.8545   4.4
22.7   16.1008   4.4
22.72   10.253   4.4
22.74   37.8978   6.15612
22.76   2.71258   4.4
22.78   1.00155   4.4
22.8   0.750367   4.4
22.82   0.896316   4.4
22.84   1.62503   4.4
22.86   5.61453   4.4
22.88   112.909   10.6259
22.9   5.75957   4.4
22.92   1.82751   4.4
22.94   1.84681   4.4
22.96   11.1394   4.4
22.98   8.67175   4.4
23   5.21581   4.4
23.02   1.98364   4.4
23.04   24.0865   4.9078
23.06   1.84956   4.4
23.08   0.8684   4.4
23.1   2.26344   4.4
23.12   0.338321   4.4
23.14   0.141872   4.4
23.16   0.0831173   4.4
23.18   0.059017   4.4
23.2   0.0447137   4.4
23.22   0.074841   4.4
23.24   0.0868969   4.4
23.26   0.110732   4.4
23.28   0.14459   4.4
23.3   0.201306   4.4
23.32   0.305381   4.4
23.34   0.565288   4.4
23.36   1.30421   4.4
23.38   5.67711   4.4
23.4   65.0783   8.06711
23.42   3.32354   4.4
23.44   1.09347   4.4
23.46   0.724173   4.4
23.48   1.12234   4.4
23.5   16.2167   4.4
23.52   5.21183   4.4
23.54   1.82248   4.4
23.56   0.75617   4.4
23.58   0.516311   4.4
23.6   2.4111   4.4
23.62   2.52216   4.4
23.64   0.524856   4.4
23.66   0.274546   4.4
23.68   0.433951   4.4
23.7   4.83762   4.4
23.72   1.0367   4.4
23.74   1.22261   4.4
23.76   21.5142   4.63834
23.78   1.42628   4.4
23.8   0.991736   4.4
23.82   6.47427   4.4
23.84   6.22909   4.4
23.86   1.07826   4.4
23.88   0.327599   4.4
23.9   0.169565   4.4
23.92   0.107156   4.4
23.94   0.0587454   4.4
23.96   0.0447576   4.4
23.98   0.0383789   4.4
24   0.0416831   4.4
24.02   0.0592716   4.4
24.04   0.212525   4.4
24.06   1.53571   4.4
24.08   0.14584   4.4
24.1   0.116243   4.4
24.12   0.117254   4.4
24.14   0.144539   4.4
24.16   0.175301   4.4
24.18   0.223459   4.4
24.2   0.335437   4.4
24.22   0.585393   4.4
24.24   1.73923   4.4
24.26   30.1496   5.49087
24.28   2.02248   4.4
24.3   3.08871   4.4
24.32   2.20607   4.4
24.34   1.47008   4.4
24.36   2.37528   4.4
24.38   6.01542   4.4
24.4   46.8228   6.84272
24.42   42.2279   6.4983
24.44   10.7532   4.4
24.46   26.9569   5.192
24.48   11.6684   4.4
24.5   2.4697   4.4
24.52   1.09573   4.4
24.54   0.666734   4.4
24.56   0.460311   4.4
24.58   0.344682   4.4
24.6   0.278721   4.4
24.62   0.324926   4.4
24.64   0.269745   4.4
24.66   0.49878   4.4
24.68   5.63137   4.4
24.7   0.385056   4.4
24.72   0.208388   4.4
24.74   0.196952   4.4
24.76   0.439684   4.4
24.78   0.869541   4.4
24.8   0.956863   4.4
24.82   18.3911   4.4
24.84   0.923092   4.4
24.86   0.244394   4.4
24.88   0.113102   4.4
24.9   0.0728506   4.4
24.92   0.0561779   4.4
24.94   0.0495721   4.4
24.96   0.0525492   4.4
24.98   0.0637909   4.4
25   0.0820108   4.4
25.02   0.173592   4.4
25.04   0.720248   4.4
25.06   2.89753   4.4
25.08   9.97613   4.4
25.1   0.58968   4.4
25.12   0.506605   4.4
25.14   0.135219   4.4
25.16   0.11198   4.4
25.18   0.132677   4.4
25.2   0.24106   4.4
25.22   0.615626   4.4
25.24   8.68372   4.4
25.26   1.53073   4.4
25.28   0.964732   4.4
25.3   8.0453   4.4
25.32   1.79171   4.4
25.34   0.43935   4.4
25.36   0.341562   4.4
25.38   0.409591   4.4
25.4   0.814648   4.4
25.42   9.94613   4.4
25.44   1.37367   4.4
25.46   2.13897   4.4
25.48   10.9392   4.4
25.5   33.1623   5.75867
25.52   13.0851   4.4
25.54   3.94906   4.4
25.56   27.0092   5.19704
25.58   8.36326   4.4
25.6   1.66702   4.4
25.62   0.772569   4.4
25.64   0.515688   4.4
25.66   0.501972   4.4
25.68   1.06979   4.4
25.7   15.998   4.4
25.72   1.3276   4.4
25.74   1.00403   4.4
25.76   0.251111   4.4
25.78   0.154164   4.4
25.8   0.101736   4.4
25.82   0.093445   4.4
25.84   0.147664   4.4
25.86   0.240435   4.4
25.88   0.787137   4.4
25.9   5.96431   4.4
25.92   0.494266   4.4
25.94   0.331035   4.4
25.96   0.384064   4.4
25.98   0.563353   4.4
26   1.00362   4.4
26.02   2.38852   4.4
26.04   11.7131   4.4
26.06   74.4183   8.62661
26.08   5.17113   4.4
26.1   4.55217   4.4
26.12   4.21028   4.4
26.14   1.80752   4.4
26.16   1.59199   4.4
26.18   9.416   4.4
26.2   44.4343   6.66591
26.22   5.81835   4.4
26.24   28.4659   5.33535
26.26   6.50905   4.4
26.28   2.19083   4.4
26.3   18.3837   4.4
26.32   9.40527   4.4
26.34   3.28466   4.4
26.36   1.42984   4.4
26.38   0.608539   4.4
26.4   0.560032   4.4
26.42   0.721029   4.4
26.44   1.22236   4.4
26.46   3.00554   4.4
26.48   19.329   4.4
26.5   36.4175   6.03469
26.52   3.70714   4.4
26.54   1.30616   4.4
26.56   0.663099   4.4
26.58   0.403008   4.4
26.6   0.27362   4.4
26.62   0.195857   4.4
26.64   0.155624   4.4
26.66   0.141875   4.4
26.68   0.249065   4.4
26.7   0.404005   4.4
26.72   0.14389   4.4
26.74   0.200171   4.4
26.76   0.939788   4.4
26.78   1.46474   4.4
26.8   0.270059   4.4
26.82   0.319936   4.4
26.84   3.08241   4.4
26.86   1.10484   4.4
26.88   1.04517   4.4
26.9   4.08029   4.4
26.92   11.0479   4.4
26.94   0.84275   4.4
26.96   0.310602   4.4
26.98   0.252626   4.4
27   0.31369   4.4
27.02   0.553617   4.4
27.04   1.73514   4.4
27.06   33.6974   5.80495
27.08   2.70371   4.4
27.1   9.35777   4.4
27.12   9.11789   4.4
27.14   1.01657   4.4
27.16   0.396183   4.4
27.18   0.216792   4.4
27.2   0.13795   4.4
27.22   0.096958   4.4
27.24   0.12156   4.4
27.26   0.141095   4.4
27.28   0.203612   4.4
27.3   0.257488   4.4
27.32   0.346735   4.4
27.34   0.561853   4.4
27.36   1.13259   4.4
27.38   3.67317   4.4
27.4   73.6641   8.58278
27.42   6.14317   4.4
27.44   3.54992   4.4
27.46   29.1501   5.39908
27.48   10.1706   4.4
27.5   1.18506   4.4
27.52   0.576545   4.4
27.54   0.427922   4.4
27.56   0.480288   4.4
27.58   1.11442   4.4
27.6   4.45053   4.4
27.62   2.70735   4.4
27.64   3.84049   4.4
27.66   6.05222   4.4
27.68   25.6688   5.06644
27.7   1.94485   4.4
27.72   0.615191   4.4
27.74   0.356069   4.4
27.76   0.356783   4.4
27.78   2.20556   4.4
27.8   1.0374   4.4
27.82   0.468291   4.4
27.84   0.724974   4.4
27.86   0.159719   4.4
27.88   0.160507   4.4
27.9   0.318465   4.4
27.92   1.76923   4.4
27.94   4.30213   4.4
27.96   2.07044   4.4
27.98   0.221305   4.4
28   0.10682   4.4
28.02   0.204408   4.4
28.04   0.0913326   4.4
28.06   0.0600587   4.4
28.08   0.0562492   4.4
28.1   0.0616793   4.4
28.12   0.0821191   4.4
28.14   0.149548   4.4
28.16   0.435438   4.4
28.18   0.410509   4.4
28.2   1.63111   4.4
28.22   25.0997   5.00996
28.24   1.16901   4.4
28.26   0.336445   4.4
28.28   0.165268   4.4
28.3   0.108705   4.4
28.32   0.0936002   4.4
28.34   0.111901   4.4
28.36   0.223552   4.4
28.38   1.46251   4.4
28.4   1.74137   4.4
28.42   0.520824   4.4
28.44   0.137461   4.4
28.46   0.0880643   4.4
28.48   0.0841195   4.4
28.5   0.10329   4.4
28.52   0.160509   4.4
28.54   0.369703   4.4
28.56   4.2711   4.4
28.58   4.27156   4.4
28.6   6.76227   4.4
28.62   2.04545   4.4
28.64   0.842493   4.4
28.66   0.388606   4.4
28.68   0.420985   4.4
28.7   0.671172   4.4
28.72   1.61664   4.4
28.74   11.7631   4.4
28.76   58.7412   7.66428
28.78   3.54912   4.4
28.8   1.11687   4.4
28.82   0.657805   4.4
28.84   0.57643   4.4
28.86   0.731006   4.4
28.88   1.36123   4.4
28.9   4.92506   4.4
28.92   73.6116   8.57972
28.94   5.16925   4.4
28.96   1.38432   4.4
28.98   0.824834   4.4
29   1.44869   4.4
29.02   15.0537   4.4
29.04   1.10577   4.4
29.06   1.90701   4.4
29.08   1.58727   4.4
29.1   1.06205   4.4
29.12   17.3331   4.4
29.14   1.45689   4.4
29.16   0.35026   4.4
29.18   0.163337   4.4
29.2   0.101643   4.4
29.22   0.0823502   4.4
29.24   0.0976394   4.4
29.26   0.594093   4.4
29.28   0.208195   4.4
29.3   0.799439   4.4
29.32   0.254316   4.4
29.34   0.601322   4.4
29.36   12.3256   4.4
29.38   0.803833   4.4
29.4   0.202993   4.4
29.42   0.104611   4.4
29.44   0.364001   4.4
29.46   0.0664116   4.4
29.48   0.0330216   4.4
29.5   0.0247067   4.4
29.52   0.0251056   4.4
29.54   0.0170136   4.4
29.56   0.0252865   4.4
29.58   0.0379536   4.4
29.6   0.0678512   4.4
29.62   0.175794   4.4
29.64   1.75408   4.4
29.66   1.46024   4.4
29.68   0.234768   4.4
29.7   0.393375   4.4
29.72   0.0995307   4.4
29.74   0.0987337   4.4
29.76   0.138972   4.4
29.78   0.28734   4.4
29.8   2.33207   4.4
29.82   1.20585   4.4
29.84   1.84926   4.4
29.86   8.00807   4.4
29.88   4.70618   4.4
29.9   3.36355   4.4
29.92   0.59779   4.4
29.94   1.20958   4.4
29.96   1.89809   4.4
29.98   0.372389   4.4
30   0.321967   4.4
30.02   0.0797926   4.4
30.04   0.056919   4.4
30.06   0.0483342   4.4
30.08   0.045541   4.4
30.1   0.0584903   4.4
30.12   0.148438   4.4
30.14   0.740011   4.4
30.16   0.167845   4.4
30.18   0.227414   4.4
30.2   0.463064   4.4
30.22   2.41153   4.4
30.24   0.312493   4.4
30.26   0.320802   4.4
30.28   0.498903   4.4
30.3   1.29292   4.4
30.32   4.68227   4.4
30.34   15.9755   4.4
30.36   22.0007   4.69049
30.38   3.90148   4.4
30.4   4.60526   4.4
30.42   3.71665   4.4
30.44   4.11231   4.4
30.46   53.3435   7.30366
30.48   10.565   4.4
30.5   2.90435   4.4
30.52   3.52782   4.4
30.54   39.0448   6.24859
30.56   8.02382   4.4
30.58   1.83566   4.4
30.6   1.65588   4.4
30.62   1.1987   4.4
30.64   4.84391   4.4
30.66   6.51002   4.4
30.68   2.32587   4.4
30.7   2.32584   4.4
30.72   11.338   4.4
30.74   0.856518   4.4
30.76   0.485608   4.4
30.78   0.479453   4.4
30.8   1.21332   4.4
30.82   21.874   4.67697
30.84   2.51541   4.4
30.86   7.571   4.4
30.88   1.13254   4.4
30.9   0.316478   4.4
30.92   0.157822   4.4
30.94   0.103846   4.4
30.96   0.0791963   4.4
30.98   0.0693236   4.4
31   0.0711027   4.4
31.02   0.113542   4.4
31.04   0.965993   4.4
31.06   0.308626   4.4
31.08   0.155905   4.4
31.1   0.205756   4.4
31.12   0.421148   4.4
31.14   2.43691   4.4
31.16   2.91793   4.4
31.18   11.8562   4.4
31.2   2.58337   4.4
31.22   7.82106   4.4
31.24   2.37139   4.4
31.26   0.562855   4.4
31.28   0.52583   4.4
31.3   1.03963   4.4
31.32   6.03616   4.4
31.34   12.6373   4.4
31.36   1.33869   4.4
31.38   0.684907   4.4
31.4   0.921344   4.4
31.42   0.225445   4.4
31.44   0.173435   4.4
31.46   0.220594   4.4
31.48   0.644739   4.4
31.5   5.9864   4.4
31.52   0.803686   4.4
31.54   2.41962   4.4
31.56   1.18321   4.4
31.58   0.793344   4.4
31.6   0.128911   4.4
31.62   0.104984   4.4
31.64   0.188623   4.4
31.66   3.13935   4.4
31.68   0.353779   4.4
31.7   0.167179   4.4
31.72   0.589978   4.4
31.74   1.16029   4.4
31.76   0.099012   4.4
31.78   0.04603   4.4
31.8   0.0427142   4.4
31.82   0.106002   4.4
31.84   1.17611   4.4
31.86   0.124469   4.4
31.88   0.265595   4.4
31.9   0.0691489   4.4
31.92   0.078162   4.4
31.94   0.191979   4.4
31.96   0.219038   4.4
31.98   0.646765   4.4
32   2.10778   4.4
32.02   19.4435   4.40947
32.04   2.41938   4.4
32.06   3.13021   4.4
32.08   1.48486   4.4
32.1   0.943296   4.4
32.12   2.68533   4.4
32.14   16.7847   4.4
32.16   6.80687   4.4
32.18   7.04229   4.4
32.2   2.32203   4.4
32.22   4.828   4.4
32.24   0.506738   4.4
32.26   0.289989   4.4
32.28   0.257194   4.4
32.3   0.308868   4.4
32.32   0.533233   4.4
32.34   2.08103   4.4
32.36   11.2389   4.4
32.38   1.65662   4.4
32.4   14.2247   4.4
32.42   1.04604   4.4
32.44   0.748202   4.4
32.46   1.10975   4.4
32.48   2.85294   4.4
32.5   18.7435   4.4
32.52   22.5951   4.75343
32.54   2.78018   4.4
32.56   1.20958   4.4
32.58   3.05539   4.4
32.6   0.616258   4.4
32.62   0.724964   4.4
32.64   5.4087   4.4
32.66   11.468   4.4
32.68   3.20741   4.4
32.7   0.585933   4.4
32.72   0.828413   4.4
32.74   0.976155   4.4
32.76   0.278379   4.4
32.78   0.261176   4.4
32.8   2.07618   4.4
32.82   0.666441   4.4
32.84   0.173027   4.4
32.86   0.0846912   4.4
32.88   0.0635185   4.4
32.9   0.071141   4.4
32.92   0.0944548   4.4
32.94   0.153563   4.4
32.96   0.459133   4.4
32.98   1.98801   4.4
33   6.80718   4.4
33.02   2.07836   4.4
33.04   0.807771   4.4
33.06   5.80114   4.4
33.08   1.36391   4.4
33.1   0.710864   4.4
33.12   1.31329   4.4
33.14   7.56655   4.4
33.16   18.7908   4.4
33.18   8.24453   4.4
33.2   6.2033   4.4
33.22   15.0444   4.4
33.24   1.47751   4.4
33.26   1.43719   4.4
33.28   8.85821   4.4
33.3   13.4976   4.4
33.32   1.68299   4.4
33.34   0.536806   4.4
33.36   0.320511   4.4
33.38   0.240724   4.4
33.4   0.248349   4.4
33.42   0.1881   4.4
33.44   0.201747   4.4
33.46   0.243221   4.4
33.48   0.289586   4.4
33.5   0.415728   4.4
33.52   0.686067   4.4
33.54   1.32544   4.4
33.56   3.68468   4.4
33.58   35.0116   5.91706
33.6   19.8063   4.45043
33.62   3.40294   4.4
33.64   1.65247   4.4
33.66   3.18162   4.4
33.68   20.461   4.52339
33.7   1.36881   4.4
33.72   0.611717   4.4
33.74   1.32587   4.4
33.76   0.655354   4.4
33.78   2.05385   4.4
33.8   2.62001   4.4
33.82   2.7591   4.4
33.84   3.52595   4.4
33.86   1.73821   4.4
33.88   0.256773   4.4
33.9   0.176689   4.4
33.92   0.256739   4.4
33.94   3.97933   4.4
33.96   0.461322   4.4
33.98   0.163426   4.4
34   0.543507   4.4
34.02   0.239946   4.4
34.04   0.279851   4.4
34.06   0.924468   4.4
34.08   12.2331   4.4
34.1   2.26253   4.4
34.12   2.27346   4.4
34.14   0.58201   4.4
34.16   0.310394   4.4
34.18   0.35964   4.4
34.2   0.881524   4.4
34.22   7.25951   4.4
34.24   2.48271   4.4
34.26   10.2203   4.4
34.28   4.55643   4.4
34.3   25.7576   5.07519
34.32   1.90935   4.4
34.34   0.602807   4.4
34.36   0.30372   4.4
34.38   0.189609   4.4
34.4   0.132979   4.4
34.42   0.0984239   4.4
34.44   0.0837666   4.4
34.46   0.0813493   4.4
34.48   0.0975914   4.4
34.5   0.190762   4.4
34.52   1.36333   4.4
34.54   1.01322   4.4
34.56   0.223812   4.4
34.58   0.469134   4.4
34.6   1.68396   4.4
34.62   0.166437   4.4
34.64   0.102821   4.4
34.66   0.126223   4.4
34.68   0.289511   4.4
34.7   1.98135   4.4
34.72   2.38414   4.4
34.74   0.291434   4.4
34.76   0.110512   4.4
34.78   0.0605501   4.4
34.8   0.0453609   4.4
34.82   0.0374046   4.4
34.84   0.0354818   4.4
34.86   0.0413013   4.4
34.88   0.0576847   4.4
34.9   0.101147   4.4
34.92   0.236147   4.4
34.94   2.15436   4.4
34.96   0.725348   4.4
34.98   0.684519   4.4
35   1.04066   4.4
35.02   10.5234   4.4
35.04   6.44516   4.4
35.06   15.5927   4.4
35.08   18.427   4.4
35.1   1.25225   4.4
35.12   1.14838   4.4
35.14   0.45349   4.4
35.16   1.91426   4.4
35.18   4.60527   4.4
35.2   0.482385   4.4
35.22   0.424418   4.4
35.24   3.64078   4.4
35.26   1.65554   4.4
35.28   0.249199   4.4
35.3   0.156213   4.4
35.32   0.501665   4.4
35.34   0.250159   4.4
35.36   0.194187   4.4
35.38   0.582388   4.4
35.4   5.05739   4.4
35.42   0.439955   4.4
35.44   0.602235   4.4
35.46   2.91309   4.4
35.48   0.988602   4.4
35.5   0.795819   4.4
35.52   1.39599   4.4
35.54   5.40231   4.4
35.56   7.73685   4.4
35.58   1.03583   4.4
35.6   0.932562   4.4
35.62   4.19636   4.4
35.64   1.81561   4.4
35.66   0.438548   4.4
35.68   0.709252   4.4
35.7   8.31881   4.4
35.72   1.78456   4.4
35.74   1.03403   4.4
35.76   1.41318   4.4
35.78   11.7641   4.4
35.8   8.96518   4.4
35.82   3.44973   4.4
35.84   18.7775   4.4
35.86   7.05025   4.4
35.88   1.09082   4.4
35.9   1.04181   4.4
35.92   0.426357   4.4
35.94   0.47518   4.4
35.96   0.22824   4.4
35.98   0.240021   4.4
36   0.309598   4.4
36.02   0.561449   4.4
36.04   3.69595   4.4
36.06   8.30711   4.4
36.08   21.8667   4.67618
36.1   5.66298   4.4
36.12   9.76742   4.4
36.14   6.41785   4.4
36.16   1.84472   4.4
36.18   0.591484   4.4
36.2   0.728791   4.4
36.22   0.795288   4.4
36.24   1.60151   4.4
36.26   1.43943   4.4
36.28   6.85855   4.4
36.3   36.6526   6.05414
36.32   2.85643   4.4
36.34   7.65987   4.4
36.36   4.93543   4.4
36.38   17.2668   4.4
36.4   2.49898   4.4
36.42   7.4918   4.4
36.44   1.78778   4.4
36.46   3.14392   4.4
36.48   1.12537   4.4
36.5   7.43344   4.4
36.52   7.23805   4.4
36.54   1.02832   4.4
36.56   3.43515   4.4
36.58   0.939524   4.4
36.6   1.07722   4.4
36.62   0.335977   4.4
36.64   0.451196   4.4
36.66   4.76614   4.4
36.68   0.769297   4.4
36.7   1.21838   4.4
36.72   5.18564   4.4
36.74   3.01531   4.4
36.76   32.37   5.68947
36.78   11.1215   4.4
36.8   2.53585   4.4
36.82   0.979397   4.4
36.84   1.11535   4.4
36.86   8.5088   4.4
36.88   3.88449   4.4
36.9   0.986678   4.4
36.92   1.00571   4.4
36.94   0.346529   4.4
36.96   0.324878   4.4
36.98   0.460902   4.4
37   1.14086   4.4
37.02   5.69846   4.4
37.04   22.0745   4.69835
37.06   1.85022   4.4
37.08   1.53605   4.4
37.1   0.867746   4.4
37.12   0.833583   4.4
37.14   0.202272   4.4
37.16   0.127914   4.4
37.18   0.120419   4.4
37.2   0.159172   4.4
37.22   0.403453   4.4
37.24   7.0732   4.4
37.26   0.664619   4.4
37.28   0.330582   4.4
37.3   0.23915   4.4
37.32   0.292947   4.4
37.34   2.12557   4.4
37.36   1.22178   4.4
37.38   0.428921   4.4
37.4   0.985276   4.4
37.42   3.4965   4.4
37.44   9.74099   4.4
37.46   3.37792   4.4
37.48   6.56112   4.4
37.5   0.792629   4.4
37.52   0.609766   4.4
37.54   4.93832   4.4
37.56   1.68267   4.4
37.58   1.40016   4.4
37.6   10.5793   4.4
37.62   2.48598   4.4
37.64   15.3352   4.4
37.66   1.44081   4.4
37.68   0.792382   4.4
37.7   0.343844   4.4
37.72   0.349722   4.4
37.74   0.723346   4.4
37.76   1.83443   4.4
37.78   4.65888   4.4
37.8   2.6611   4.4
37.82   9.99999   4.4
37.84   1.2923   4.4
37.86   0.799416   4.4
37.88   7.2402   4.4
37.9   2.52933   4.4
37.92   0.95036   4.4
37.94   2.9824   4.4
37.96   9.96052   4.4
37.98   5.61509   4.4
38   7.19732   4.4
38.02   14.9995   4.4
38.04   58.4334   7.64417
38.06   5.72745   4.4
38.08   3.51713   4.4
38.1   8.31786   4.4
38.12   7.01333   4.4
38.14   1.16362   4.4
38.16   0.932726   4.4
38.18   3.64822   4.4
38.2   1.87331   4.4
38.22   5.11229   4.4
38.24   12.1325   4.4
38.26   2.78048   4.4
38.28   5.46621   4.4
38.3   0.863824   4.4
38.32   0.262283   4.4
38.34   0.141333   4.4
38.36   0.091313   4.4
38.38   0.0760216   4.4
38.4   0.0761136   4.4
38.42   0.0899108   4.4
38.44   0.467552   4.4
38.46   0.0934757   4.4
38.48   0.0927695   4.4
38.5   0.126825   4.4
38.52   0.254928   4.4
38.54   0.238498   4.4
38.56   0.436899   4.4
38.58   1.47762   4.4
38.6   17.5686   4.4
38.62   2.81583   4.4
38.64   5.552   4.4
38.66   10.7477   4.4
38.68   1.47575   4.4
38.7   1.24873   4.4
38.72   3.14065   4.4
38.74   43.3272   6.58234
38.76   14.0829   4.4
38.78   6.27232   4.4
38.8   1.27044   4.4
38.82   0.635105   4.4
38.84   0.491014   4.4
38.86   1.58684   4.4
38.88   0.996936   4.4
38.9   1.25031   4.4
38.92   9.08113   4.4
38.94   5.1229   4.4
38.96   5.55085   4.4
38.98   3.42675   4.4
39   3.76162   4.4
39.02   1.386   4.4
39.04   2.24625   4.4
39.06   9.30648   4.4
39.08   4.31295   4.4
39.1   2.09044   4.4
39.12   1.94764   4.4
39.14   3.94004   4.4
39.16   24.3954   4.93917
39.18   3.86908   4.4
39.2   2.20628   4.4
39.22   9.7607   4.4
39.24   0.786668   4.4
39.26   0.40185   4.4
39.28   0.664584   4.4
39.3   2.12057   4.4
39.32   14.3765   4.4
39.34   1.49338   4.4
39.36   3.55691   4.4
39.38   0.511376   4.4
39.4   0.188254   4.4
39.42   0.131933   4.4
39.44   0.122735   4.4
39.46   0.146953   4.4
39.48   0.222043   4.4
39.5   0.484472   4.4
39.52   3.02255   4.4
39.54   9.76937   4.4
39.56   1.94534   4.4
39.58   0.487604   4.4
39.6   0.298829   4.4
39.62   0.354739   4.4
39.64   0.445241   4.4
39.66   1.34285   4.4
39.68   2.03723   4.4
39.7   10.4884   4.4
39.72   11.2073   4.4
39.74   4.70885   4.4
39.76   3.31948   4.4
39.78   10.6635   4.4
39.8   2.28327   4.4
39.82   1.19514   4.4
39.84   1.14989   4.4
39.86   1.53265   4.4
39.88   2.95614   4.4
39.9   0.544626   4.4
39.92   0.827768   4.4
39.94   0.520708   4.4
39.96   1.06176   4.4
39.98   5.02434   4.4
40   27.5065   5.24466
40.02   1.86844   4.4
40.04   0.735538   4.4
40.06   0.615473   4.4
40.08   1.15542   4.4
40.1   11.074   4.4
40.12   4.28148   4.4
40.14   1.07879   4.4
40.16   0.520227   4.4
40.18   1.42251   4.4
40.2   1.69936   4.4
40.22   0.797009   4.4
40.24   3.12632   4.4
40.26   1.91899   4.4
40.28   15.8575   4.4
40.3   2.33335   4.4
40.32   19.3295   4.4
40.34   6.49756   4.4
40.36   4.56185   4.4
40.38   1.35216   4.4
40.4   0.899116   4.4
40.42   0.309849   4.4
40.44   0.465875   4.4
40.46   2.282   4.4
40.48   0.226266   4.4
40.5   0.143494   4.4
40.52   0.20474   4.4
40.54   1.45164   4.4
40.56   0.260701   4.4
40.58   1.84036   4.4
40.6   0.409   4.4
40.62   1.28965   4.4
40.64   9.16839   4.4
40.66   1.24162   4.4
40.68   0.797437   4.4
40.7   4.81131   4.4
40.72   3.04439   4.4
40.74   18.7317   4.4
40.76   1.65134   4.4
40.78   7.7296   4.4
40.8   3.6912   4.4
40.82   1.31688   4.4
40.84   10.548   4.4
40.86   12.6224   4.4
40.88   0.94277   4.4
40.9   0.55847   4.4
40.92   3.07119   4.4
40.94   4.1459   4.4
40.96   1.50183   4.4
40.98   3.31229   4.4
41   4.17429   4.4
41.02   3.34944   4.4
41.04   0.435456   4.4
41.06   1.08719   4.4
41.08   0.650324   4.4
41.1   6.20319   4.4
41.12   0.408588   4.4
41.14   0.307527   4.4
41.16   1.50587   4.4
41.18   1.62163   4.4
41.2   0.347041   4.4
41.22   0.150715   4.4
41.24   0.0890256   4.4
41.26   0.200149   4.4
41.28   0.120646   4.4
41.3   0.114963   4.4
41.32   0.149467   4.4
41.34   0.243867   4.4
41.36   0.918364   4.4
41.38   4.33268   4.4
41.4   2.29891   4.4
41.42   0.761045   4.4
41.44   2.11344   4.4
41.46   7.17106   4.4
41.48   0.891004   4.4
41.5   3.59503   4.4
41.52   0.405511   4.4
41.54   0.172113   4.4
41.56   0.409989   4.4
41.58   0.734751   4.4
41.6   0.118175   4.4
41.62   0.0769051   4.4
41.64   0.0984751   4.4
41.66   0.121233   4.4
41.68   0.0972423   4.4
41.7   0.15289   4.4
41.72   0.371133   4.4
41.74   1.53799   4.4
41.76   5.85656   4.4
41.78   2.82403   4.4
41.8   2.99414   4.4
41.82   7.39611   4.4
41.84   0.732457   4.4
41.86   0.489362   4.4
41.88   1.94964   4.4
41.9   2.89545   4.4
41.92   17.1803   4.4
41.94   1.03227   4.4
41.96   0.580896   4.4
41.98   1.46557   4.4
42   8.79823   4.4
42.02   0.532569   4.4
42.04   0.313883   4.4
42.06   1.20566   4.4
42.08   0.58178   4.4
42.1   1.45549   4.4
42.12   1.50591   4.4
42.14   1.85856   4.4
42.16   1.26647   4.4
42.18   0.86208   4.4
42.2   0.7523   4.4
42.22   6.65284   4.4
42.24   9.80011   4.4
42.26   0.782499   4.4
42.28   0.366405   4.4
42.3   0.91395   4.4
42.32   1.15385   4.4
42.34   1.01581   4.4
42.36   4.16652   4.4
42.38   4.05459   4.4
42.4   0.55617   4.4
42.42   1.37523   4.4
42.44   2.73424   4.4
42.46   10.7225   4.4
42.48   2.87411   4.4
42.5   6.42873   4.4
42.52   11.295   4.4
42.54   2.57156   4.4
42.56   19.1106   4.4
42.58   1.38045   4.4
42.6   0.532031   4.4
42.62   0.244203   4.4
42.64   0.191258   4.4
42.66   0.242474   4.4
42.68   0.645655   4.4
42.7   8.44161   4.4
42.72   2.3125   4.4
42.74   0.308956   4.4
42.76   0.154793   4.4
42.78   0.163986   4.4
42.8   0.653949   4.4
42.82   0.997353   4.4
42.84   0.55399   4.4
42.86   1.19403   4.4
42.88   1.34405   4.4
42.9   0.626354   4.4
42.92   0.480505   4.4
42.94   4.55129   4.4
42.96   2.95982   4.4
42.98   4.64685   4.4
43   0.722431   4.4
43.02   3.25965   4.4
43.04   2.98871   4.4
43.06   8.50115   4.4
43.08   1.74856   4.4
43.1   0.497366   4.4
43.12   2.18794   4.4
43.14   1.06682   4.4
43.16   0.547653   4.4
43.18   1.05381   4.4
43.2   0.614367   4.4
43.22   0.367555   4.4
43.24   0.952202   4.4
43.26   2.70698   4.4
43.28   16.725   4.4
43.3   1.17923   4.4
43.32   0.460725   4.4
43.34   0.349305   4.4
43.36   0.543065   4.4
43.38   3.26873   4.4
43.4   9.14562   4.4
43.42   0.907722   4.4
43.44   1.11276   4.4
43.46   11.8161   4.4
43.48   0.770687   4.4
43.5   0.540788   4.4
43.52   1.14815   4.4
43.54   5.95049   4.4
43.56   0.463973   4.4
43.58   1.05497   4.4
43.6   3.75274   4.4
43.62   1.02634   4.4
43.64   0.241171   4.4
43.66   0.265433   4.4
43.68   1.10164   4.4
43.7   2.45857   4.4
43.72   0.727561   4.4
43.74   0.353119   4.4
43.76   0.884351   4.4
43.78   5.11468   4.4
43.8   1.9006   4.4
43.82   11.8174   4.4
43.84   1.16285   4.4
43.86   0.49629   4.4
43.88   0.604513   4.4
43.9   4.16375   4.4
43.92   18.2302   4.4
43.94   4.44998   4.4
43.96   0.755017   4.4
43.98   0.612528   4.4
44   2.23981   4.4
44.02   5.87579   4.4
44.04   8.70235   4.4
44.06   1.52687   4.4
44.08   1.04089   4.4
44.1   10.1149   4.4
44.12   0.742782   4.4
44.14   0.27949   4.4
44.16   0.260894   4.4
44.18   0.872652   4.4
44.2   2.17229   4.4
44.22   0.526118   4.4
44.24   0.427472   4.4
44.26   2.97528   4.4
44.28   3.91055   4.4
44.3   0.49003   4.4
44.32   1.56438   4.4
44.34   0.590898   4.4
44.36   1.32161   4.4
44.38   15.2897   4.4
44.4   4.40631   4.4
44.42   20.8812   4.5696
44.44   7.27695   4.4
44.46   5.7762   4.4
44.48   7.11692   4.4
44.5   2.39107   4.4
44.52   0.960593   4.4
44.54   0.962648   4.4
44.56   0.354011   4.4
44.58   0.492752   4.4
44.6   3.75105   4.4
44.62   1.84005   4.4
44.64   0.427258   4.4
44.66   0.515005   4.4
44.68   7.66638   4.4
44.7   0.765253   4.4
44.72   0.747853   4.4
44.74   0.728607   4.4
44.76   10.0821   4.4
44.78   0.584758   4.4
44.8   0.368289   4.4
44.82   1.56064   4.4
44.84   0.442996   4.4
44.86   1.22801   4.4
44.88   0.906739   4.4
44.9   1.90065   4.4
44.92   18.2411   4.4
44.94   5.18545   4.4
44.96   1.27818   4.4
44.98   1.70656   4.4
45   4.22892   4.4
45.02   3.3354   4.4
45.04   2.28734   4.4
45.06   1.15531   4.4
45.08   0.281675   4.4
45.1   0.214838   4.4
45.12   0.115688   4.4
45.14   0.22311   4.4
45.16   0.610381   4.4
45.18   0.849643   4.4
45.2   1.25417   4.4
45.22   0.880564   4.4
45.24   0.351058   4.4
45.26   0.652196   4.4
45.28   3.64959   4.4
45.3   36.1338   6.01114
45.32   3.53359   4.4
45.34   0.896166   4.4
45.36   2.25094   4.4
45.38   1.43209   4.4
45.4   4.65564   4.4
45.42   38.3818   6.19531
45.44   3.12512   4.4
45.46   4.10266   4.4
45.48   0.817858   4.4
45.5   2.33487   4.4
45.52   1.87935   4.4
45.54   0.545287   4.4
45.56   3.44549   4.4
45.58   4.10335   4.4
45.6   4.82909   4.4
45.62   0.704796   4.4
45.64   0.203537   4.4
45.66   0.253586   4.4
45.68   3.47205   4.4
45.7   0.25428   4.4
45.72   0.171025   4.4
45.74   0.502184   4.4
45.76   1.10307   4.4
45.78   0.226007   4.4
45.8   0.387399   4.4
45.82   0.438815   4.4
45.84   1.11076   4.4
45.86   11.9208   4.4
45.88   5.91041   4.4
45.9   14.6938   4.4
45.92   3.0896   4.4
45.94   0.577778   4.4
45.96   0.317971   4.4
45.98   0.925582   4.4
46   0.257396   4.4
46.02   0.442695   4.4
46.04   2.49478   4.4
46.06   6.42552   4.4
46.08   1.61218   4.4
46.1   3.51613   4.4
46.12   1.38323   4.4
46.14   0.23999   4.4
46.16   0.30511   4.4
46.18   0.40014   4.4
46.2   0.99352   4.4
46.22   1.5943   4.4
46.24   3.06679   4.4
46.26   0.893409   4.4
46.28   6.69027   4.4
46.3   0.550762   4.4
46.32   2.54388   4.4
46.34   1.97991   4.4
46.36   0.372058   4.4
46.38   2.51165   4.4
46.4   0.390121   4.4
46.42   0.139363   4.4
46.44   0.140023   4.4
46.46   0.176624   4.4
46.48   0.543017   4.4
46.5   1.17089   4.4
46.52   8.47044   4.4
46.54   0.93915   4.4
46.56   0.938427   4.4
46.58   1.45375   4.4
46.6   10.6543   4.4
46.62   2.59763   4.4
46.64   1.51299   4.4
46.66   0.689051   4.4
46.68   3.67841   4.4
46.7   1.14705   4.4
46.72   2.76368   4.4
46.74   3.0522   4.4
46.76   26.3522   5.13344
46.78   2.39711   4.4
46.8   2.28255   4.4
46.82   1.21667   4.4
46.84   3.24211   4.4
46.86   11.9414   4.4
46.88   34.2467   5.85207
46.9   2.47516   4.4
46.92   3.12924   4.4
46.94   1.06274   4.4
46.96   1.47587   4.4
46.98   2.8293   4.4
47   8.68584   4.4
47.02   0.957386   4.4
47.04   2.62831   4.4
47.06   2.34263   4.4
47.08   2.27737   4.4
47.1   1.87371   4.4
47.12   0.74841   4.4
47.14   1.81215   4.4
47.16   1.15878   4.4
47.18   5.77238   4.4
47.2   7.59121   4.4
47.22   0.882641   4.4
47.24   0.227547   4.4
47.26   0.284691   4.4
47.28   0.133685   4.4
47.3   0.140848   4.4
47.32   0.244103   4.4
47.34   0.866997   4.4
47.36   13.7747   4.4
47.38   1.1154   4.4
47.4   0.239481   4.4
47.42   0.166458   4.4
47.44   0.334217   4.4
47.46   1.44873   4.4
47.48   1.14215   4.4
47.5   0.23537   4.4
47.52   0.582237   4.4
47.54   1.24248   4.4
47.56   0.726269   4.4
47.58   0.203228   4.4
47.6   0.508548   4.4
47.62   0.566063   4.4
47.64   1.04696   4.4
47.66   1.16764   4.4
47.68   1.24433   4.4
47.7   11.8373   4.4
47.72   0.945114   4.4
47.74   0.897941   4.4
47.76   0.284699   4.4
47.78   0.695224   4.4
47.8   1.12884   4.4
47.82   0.542405   4.4
47.84   4.25508   4.4
47.86   2.04595   4.4
47.88   0.366378   4.4
47.9   0.209455   4.4
47.92   0.285451   4.4
47.94   3.0546   4.4
47.96   0.51734   4.4
47.98   0.890579   4.4
48   0.619892   4.4
48.02   7.48525   4.4
48.04   2.70216   4.4
48.06   0.539932   4.4
48.08   0.30155   4.4
48.1   0.304772   4.4
48.12   1.42852   4.4
48.14   2.73176   4.4
48.16   0.545703   4.4
48.18   3.47103   4.4
48.2   4.82245   4.4
48.22   0.745756   4.4
48.24   0.390144   4.4
48.26   1.21752   4.4
48.28   7.6916   4.4
48.3   1.90398   4.4
48.32   1.30024   4.4
48.34   1.21546   4.4
48.36   4.06229   4.4
48.38   5.64162   4.4
48.4   0.855775   4.4
48.42   3.62554   4.4
48.44   3.14633   4.4
48.46   15.8908   4.4
48.48   1.08025   4.4
48.5   1.32313   4.4
48.52   0.855172   4.4
48.54   0.222399   4.4
48.56   0.196751   4.4
48.58   0.761781   4.4
48.6   2.24702   4.4
48.62   0.783459   4.4
48.64   0.285264   4.4
48.66   0.279104   4.4
48.68   0.139194   4.4
48.7   0.475119   4.4
48.72   0.432211   4.4
48.74   0.34217   4.4
48.76   1.68169   4.4
48.78   7.36338   4.4
48.8   1.4841   4.4
48.82   9.23947   4.4
48.84   2.51109   4.4
48.86   0.763444   4.4
48.88   0.893977   4.4
48.9   0.281288   4.4
48.92   1.12154   4.4
48.94   2.21179   4.4
48.96   0.266901   4.4
48.98   0.108159   4.4
49   0.0753156   4.4
49.02   0.0413875   4.4
49.04   0.0436325   4.4
49.06   0.173494   4.4
49.08   0.158832   4.4
49.1   0.0913076   4.4
49.12   0.67628   4.4
49.14   0.324645   4.4
49.16   0.19969   4.4
49.18   0.468801   4.4
49.2   3.03333   4.4
49.22   5.42714   4.4
49.24   0.726334   4.4
49.26   0.983646   4.4
49.28   0.300558   4.4
49.3   1.03396   4.4
49.32   0.160601   4.4
49.34   0.124128   4.4
49.36   0.123916   4.4
49.38   0.0880948   4.4
49.4   0.286061   4.4
49.42   1.93166   4.4
49.44   0.211696   4.4
49.46   1.27451   4.4
49.48   0.539163   4.4
49.5   1.31662   4.4
49.52   0.235473   4.4
49.54   0.69059   4.4
49.56   8.99451   4.4
49.58   0.685171   4.4
49.6   0.65066   4.4
49.62   1.49117   4.4
49.64   0.387332   4.4
49.66   0.455136   4.4
49.68   0.508831   4.4
49.7   2.08979   4.4
49.72   1.20917   4.4
49.74   0.238683   4.4
49.76   0.702747   4.4
49.78   3.65247   4.4
49.8   0.594938   4.4
49.82   0.863297   4.4
49.84   0.224188   4.4
49.86   0.16695   4.4
49.88   0.342949   4.4
49.9   1.85127   4.4
49.92   1.34423   4.4
49.94   0.329778   4.4
49.96   0.42552   4.4
49.98   1.80461   4.4
50   4.42711   4.4
