599.81088	0.98041
600.77520	0.97948
601.73953	0.97928
602.70386	0.97964
603.66818	0.98095
604.63251	0.98416
605.59684	0.98840
606.56116	0.99152
607.52549	0.99332
608.48981	0.99460
609.45414	0.99523
610.41847	0.99575
611.38279	0.99701
612.34712	0.99839
613.31144	0.99938
614.27577	0.99997
615.24010	0.99979
616.20442	0.99891
617.16875	0.99821
618.13308	0.99824
619.09740	0.99843
620.06173	0.99817
621.02605	0.99773
621.99038	0.99768
622.95471	0.99809
623.91903	0.99847
624.88336	0.99865
625.84768	0.99871
626.81201	0.99864
627.77634	0.99842
628.74066	0.99831
629.70499	0.99860
630.66932	0.99900
631.63364	0.99879
632.59797	0.99792
633.56229	0.99707
634.52662	0.99672
635.49095	0.99683
636.45527	0.99713
637.41960	0.99731
638.38393	0.99725
639.34825	0.99710
640.31258	0.99696
641.27690	0.99697
642.24123	0.99710
643.20556	0.99711
644.16988	0.99706
645.13421	0.99720
646.09853	0.99740
647.06286	0.99748
648.02719	0.99745
648.99151	0.99729
649.95584	0.99698
650.92017	0.99663
651.88449	0.99640
652.84882	0.99635
653.81314	0.99626
654.77747	0.99612
655.74180	0.99624
656.70612	0.99647
657.67045	0.99647
658.63477	0.99621
659.59910	0.99588
660.56343	0.99576
661.52775	0.99574
662.49208	0.99535
663.45641	0.99444
664.42073	0.99347
665.38506	0.99315
666.34938	0.99387
667.31371	0.99501
668.27804	0.99555
669.24236	0.99543
670.20669	0.99536
671.17101	0.99552
672.13534	0.99544
673.09967	0.99503
674.06399	0.99456
675.02832	0.99420
675.99265	0.99389
676.95697	0.99362
677.92130	0.99341
678.88562	0.99319
679.84995	0.99287
680.81428	0.99255
681.77860	0.99228
682.74293	0.99198
683.70726	0.99161
684.67158	0.99107
685.63591	0.99009
686.60023	0.98878
687.56456	0.98759
688.52889	0.98643
689.49321	0.98479
690.45754	0.98237
691.42186	0.97946
692.38619	0.97646
693.35052	0.97332
694.31484	0.96975
695.27917	0.96569
696.24350	0.96142
697.20782	0.95770
698.17215	0.95577
699.13647	0.95640
700.10080	0.95913
701.06513	0.96310
702.02945	0.96813
702.99378	0.97408
703.95810	0.97992
704.92243	0.98446
705.88676	0.98739
706.85108	0.98909
707.81541	0.99009
708.77974	0.99097
709.74406	0.99199
710.70839	0.99283
711.67271	0.99325
712.63704	0.99341
713.60137	0.99356
714.56569	0.99389
715.53002	0.99447
716.49434	0.99512
717.45867	0.99547
718.42300	0.99535
719.38732	0.99508
720.35165	0.99494
721.31598	0.99484
722.28030	0.99462
723.24463	0.99439
724.20895	0.99438
725.17328	0.99453
726.13761	0.99458
727.10193	0.99441
728.06626	0.99418
729.03059	0.99412
729.99491	0.99418
730.95924	0.99412
731.92356	0.99399
732.88789	0.99384
733.85222	0.99350
734.81654	0.99306
735.78087	0.99286
736.74519	0.99289
737.70952	0.99289
738.67385	0.99288
739.63817	0.99289
740.60250	0.99283
741.56683	0.99264
742.53115	0.99210
743.49548	0.99116
744.45980	0.99034
745.42413	0.98988
746.38846	0.98954
747.35278	0.98931
748.31711	0.98912
749.28143	0.98869
750.24576	0.98807
751.21009	0.98754
752.17441	0.98695
753.13874	0.98586
754.10307	0.98427
755.06739	0.98234
756.03172	0.98002
756.99604	0.97707
757.96037	0.97312
758.92470	0.96794
759.88902	0.96130
760.85335	0.95275
761.81767	0.94243
762.78200	0.93290
763.74633	0.92925
764.71065	0.93477
765.67498	0.94583
766.63931	0.95485
767.60363	0.95763
768.56796	0.95667
769.53228	0.95891
770.49661	0.96769
771.46094	0.97848
772.42526	0.98608
773.38959	0.98996
774.35392	0.99183
775.31824	0.99289
776.28257	0.99337
777.24689	0.99340
778.21122	0.99332
779.17555	0.99321
780.13987	0.99300
781.10420	0.99256
782.06852	0.99153
783.03285	0.98994
783.99718	0.98808
784.96150	0.98570
785.92583	0.98254
786.89016	0.97900
787.85448	0.97610
788.81881	0.97498
789.78313	0.97556
790.74746	0.97644
791.71179	0.97641
792.67611	0.97568
793.64044	0.97545
794.60476	0.97670
795.56909	0.97947
796.53342	0.98309
797.49774	0.98665
798.46207	0.98942
799.42640	0.99109
800.39072	0.99177
801.35505	0.99222
802.31937	0.99326
803.28370	0.99471
804.24803	0.99583
805.21235	0.99629
806.17668	0.99644
807.14100	0.99662
808.10533	0.99678
809.06966	0.99675
810.03398	0.99662
810.99831	0.99653
811.96264	0.99654
812.92696	0.99664
813.89129	0.99671
814.85561	0.99668
815.81994	0.99661
816.78427	0.99642
817.74859	0.99608
818.71292	0.99583
819.67725	0.99574
820.64157	0.99562
821.60590	0.99543
822.57022	0.99530
823.53455	0.99535
824.49888	0.99549
825.46320	0.99541
826.42753	0.99517
827.39185	0.99510
828.35618	0.99515
829.32051	0.99506
830.28483	0.99495
831.24916	0.99496
832.21349	0.99489
833.17781	0.99469
834.14214	0.99460
835.10646	0.99457
836.07079	0.99438
837.03512	0.99415
837.99944	0.99396
838.96377	0.99371
839.92809	0.99341
840.89242	0.99315
841.85675	0.99281
842.82107	0.99229
843.78540	0.99176
844.74973	0.99141
845.71405	0.99109
846.67838	0.99061
847.64270	0.98999
848.60703	0.98925
849.57136	0.98821
850.53568	0.98656
851.50001	0.98407
852.46434	0.98064
853.42866	0.97672
854.39299	0.97413
855.35731	0.97477
856.32164	0.97776
857.28597	0.98010
858.25029	0.98054
859.21462	0.98025
860.17894	0.98088
861.14327	0.98309
862.10760	0.98597
863.07192	0.98828
864.03625	0.98984
865.00058	0.99084
865.96490	0.99128
866.92923	0.99135
867.89355	0.99121
868.85788	0.99097
869.82221	0.99079
870.78653	0.99070
871.75086	0.99070
872.71518	0.99073
873.67951	0.99063
874.64384	0.99041
875.60816	0.99022
876.57249	0.99016
877.53682	0.99019
878.50114	0.99029
879.46547	0.99037
880.42979	0.99021
881.39412	0.98985
882.35845	0.98952
883.32277	0.98944
884.28710	0.98955
885.25142	0.98971
886.21575	0.98982
887.18008	0.99000
888.14440	0.99038
889.10873	0.99092
890.07306	0.99140
891.03738	0.99168
892.00171	0.99192
892.96603	0.99221
893.93036	0.99245
894.89469	0.99261
895.85901	0.99280
896.82334	0.99299
897.78767	0.99307
898.75199	0.99306
899.71632	0.99309
900.68064	0.99308
901.64497	0.99301
902.60930	0.99294
903.57362	0.99292
904.53795	0.99298
905.50227	0.99306
906.46660	0.99304
907.43093	0.99302
908.39525	0.99306
909.35958	0.99303
910.32391	0.99286
911.28823	0.99273
912.25256	0.99279
913.21688	0.99285
914.18121	0.99283
915.14554	0.99287
916.10986	0.99289
917.07419	0.99268
918.03851	0.99238
919.00284	0.99228
919.96717	0.99229
920.93149	0.99224
921.89582	0.99216
922.86015	0.99218
923.82447	0.99224
924.78880	0.99220
925.75312	0.99206
926.71745	0.99192
927.68178	0.99190
928.64610	0.99192
929.61043	0.99190
930.57475	0.99186
931.53908	0.99185
932.50341	0.99193
933.46773	0.99208
934.43206	0.99214
935.39639	0.99207
936.36071	0.99198
937.32504	0.99197
938.28936	0.99205
939.25369	0.99218
940.21802	0.99232
941.18234	0.99236
942.14667	0.99227
943.11100	0.99221
944.07532	0.99219
945.03965	0.99216
946.00397	0.99217
946.96830	0.99222
947.93263	0.99221
948.89695	0.99219
949.86128	0.99228
950.82560	0.99238
951.78993	0.99238
952.75426	0.99236
953.71858	0.99230
954.68291	0.99218
955.64724	0.99214
956.61156	0.99221
957.57589	0.99222
958.54021	0.99210
959.50454	0.99200
960.46887	0.99203
961.43319	0.99202
962.39752	0.99186
963.36184	0.99173
964.32617	0.99170
965.29050	0.99167
966.25482	0.99160
967.21915	0.99139
968.18348	0.99104
969.14780	0.99060
970.11213	0.99022
971.07645	0.99009
972.04078	0.99022
973.00511	0.99048
973.96943	0.99076
974.93376	0.99096
975.89808	0.99098
976.86241	0.99091
977.82674	0.99077
978.79106	0.99046
979.75539	0.99006
980.71972	0.98996
981.68404	0.99035
982.64837	0.99104
983.61269	0.99162
984.57702	0.99189
985.54135	0.99202
986.50567	0.99216
987.47000	0.99234
988.43433	0.99244
989.39865	0.99242
990.36298	0.99233
991.32730	0.99223
992.29163	0.99226
993.25596	0.99251
994.22028	0.99276
995.18461	0.99285
996.14893	0.99279
997.11326	0.99268
998.07759	0.99258
999.04191	0.99249
1000.00624	0.99245
1000.97057	0.99249
1001.93489	0.99253
1002.89922	0.99252
1003.86354	0.99252
1004.82787	0.99250
1005.79220	0.99246
1006.75652	0.99241
1007.72085	0.99236
1008.68517	0.99227
1009.64950	0.99222
1010.61383	0.99227
1011.57815	0.99234
1012.54248	0.99234
1013.50681	0.99228
1014.47113	0.99225
1015.43546	0.99225
1016.39978	0.99225
1017.36411	0.99231
1018.32844	0.99236
1019.29276	0.99234
1020.25709	0.99225
1021.22141	0.99218
1022.18574	0.99219
1023.15007	0.99233
1024.11439	0.99252
1025.07872	0.99258
1026.04305	0.99238
1027.00737	0.99207
1027.97170	0.99195
1028.93602	0.99200
1029.90035	0.99207
1030.86468	0.99214
1031.82900	0.99219
1032.79333	0.99218
1033.75766	0.99212
1034.72198	0.99206
1035.68631	0.99206
1036.65063	0.99214
1037.61496	0.99218
1038.57929	0.99209
1039.54361	0.99199
1040.50794	0.99189
1041.47226	0.99173
1042.43659	0.99163
1043.40092	0.99163
1044.36524	0.99159
1045.32957	0.99144
1046.29390	0.99129
1047.25822	0.99128
1048.22255	0.99135
1049.18687	0.99138
1050.15120	0.99134
1051.11553	0.99122
1052.07985	0.99108
1053.04418	0.99101
1054.00850	0.99092
1054.97283	0.99083
1055.93716	0.99085
1056.90148	0.99087
1057.86581	0.99077
1058.83014	0.99059
1059.79446	0.99039
1060.75879	0.99021
1061.72311	0.99016
1062.68744	0.99018
1063.65177	0.99008
1064.61609	0.98986
1065.58042	0.98968
1066.54474	0.98950
1067.50907	0.98930
1068.47340	0.98913
1069.43772	0.98893
1070.40205	0.98858
1071.36638	0.98814
1072.33070	0.98789
1073.29503	0.98784
1074.25935	0.98761
1075.22368	0.98701
1076.18801	0.98615
1077.15233	0.98530
1078.11666	0.98472
1079.08099	0.98451
1080.04531	0.98458
1081.00964	0.98493
1081.97396	0.98552
1082.93829	0.98614
1083.90262	0.98666
1084.86694	0.98721
1085.83127	0.98768
1086.79559	0.98792
1087.75992	0.98794
1088.72425	0.98782
1089.68857	0.98777
1090.65290	0.98793
1091.61723	0.98821
1092.58155	0.98842
1093.54588	0.98846
1094.51020	0.98844
1095.47453	0.98843
1096.43886	0.98846
1097.40318	0.98852
1098.36751	0.98851
1099.33183	0.98846
1100.29616	0.98844
1101.26049	0.98845
1102.22481	0.98852
1103.18914	0.98858
1104.15347	0.98856
1105.11779	0.98858
1106.08212	0.98868
1107.04644	0.98873
1108.01077	0.98871
1108.97510	0.98867
1109.93942	0.98856
1110.90375	0.98841
1111.86807	0.98827
1112.83240	0.98814
1113.79673	0.98801
1114.76105	0.98790
1115.72538	0.98775
1116.68971	0.98758
1117.65403	0.98747
1118.61836	0.98744
1119.58268	0.98736
1120.54701	0.98718
1121.51134	0.98692
1122.47566	0.98671
1123.43999	0.98665
1124.40432	0.98659
1125.36864	0.98644
1126.33297	0.98623
1127.29729	0.98594
1128.26162	0.98556
1129.22595	0.98520
1130.19027	0.98494
1131.15460	0.98471
1132.11892	0.98447
1133.08325	0.98425
1134.04758	0.98403
1135.01190	0.98377
1135.97623	0.98343
1136.94056	0.98315
1137.90488	0.98302
1138.86921	0.98282
1139.83353	0.98249
1140.79786	0.98215
1141.76219	0.98183
1142.72651	0.98150
1143.69084	0.98112
1144.65516	0.98070
1145.61949	0.98025
1146.58382	0.97986
1147.54814	0.97956
1148.51247	0.97917
1149.47680	0.97860
1150.44112	0.97792
1151.40545	0.97716
1152.36977	0.97630
1153.33410	0.97538
1154.29843	0.97440
1155.26275	0.97329
1156.22708	0.97202
1157.19141	0.97062
1158.15573	0.96917
1159.12006	0.96759
1160.08438	0.96575
1161.04871	0.96362
1162.01304	0.96110
1162.97736	0.95826
1163.94169	0.95521
1164.90601	0.95176
1165.87034	0.94768
1166.83467	0.94310
1167.79899	0.93842
1168.76332	0.93429
1169.72765	0.93152
1170.69197	0.93083
1171.65630	0.93234
1172.62062	0.93526
1173.58495	0.93831
1174.54928	0.94077
1175.51360	0.94274
1176.47793	0.94477
1177.44225	0.94727
1178.40658	0.95022
1179.37091	0.95329
1180.33523	0.95621
1181.29956	0.95899
1182.26389	0.96169
1183.22821	0.96432
1184.19254	0.96688
1185.15686	0.96926
1186.12119	0.97140
1187.08552	0.97345
1188.04984	0.97539
1189.01417	0.97698
1189.97849	0.97817
1190.94282	0.97903
1191.90715	0.97977
1192.87147	0.98060
1193.83580	0.98154
1194.80013	0.98248
1195.76445	0.98336
1196.72878	0.98415
1197.69310	0.98476
1198.65743	0.98518
1199.62176	0.98550
1200.58608	0.98567
1201.55041	0.98563
1202.51474	0.98550
1203.47906	0.98537
1204.44339	0.98524
1205.40771	0.98512
1206.37204	0.98500
1207.33637	0.98482
1208.30069	0.98458
1209.26502	0.98431
1210.22934	0.98404
1211.19367	0.98378
1212.15800	0.98355
1213.12232	0.98330
1214.08665	0.98302
1215.05098	0.98273
1216.01530	0.98247
1216.97963	0.98223
1217.94395	0.98198
1218.90828	0.98165
1219.87261	0.98121
1220.83693	0.98070
1221.80126	0.98015
1222.76558	0.97961
1223.72991	0.97908
1224.69424	0.97857
1225.65856	0.97804
1226.62289	0.97746
1227.58722	0.97684
1228.55154	0.97620
1229.51587	0.97556
1230.48019	0.97497
1231.44452	0.97445
1232.40885	0.97399
1233.37317	0.97367
1234.33750	0.97359
1235.30182	0.97371
1236.26615	0.97385
1237.23048	0.97390
1238.19480	0.97386
1239.15913	0.97381
1240.12346	0.97375
1241.08778	0.97365
1242.05211	0.97353
1243.01643	0.97339
1243.98076	0.97313
1244.94509	0.97267
1245.90941	0.97208
1246.87374	0.97150
1247.83807	0.97099
1248.80239	0.97045
1249.76672	0.96989
1250.73104	0.96944
1251.69537	0.96916
1252.65970	0.96901
1253.62402	0.96902
1254.58835	0.96918
1255.55267	0.96938
1256.51700	0.96953
1257.48133	0.96960
1258.44565	0.96965
1259.40998	0.96975
1260.37431	0.96987
1261.33863	0.96985
1262.30296	0.96967
1263.26728	0.96948
1264.23161	0.96934
1265.19594	0.96914
1266.16026	0.96879
1267.12459	0.96835
1268.08891	0.96788
1269.05324	0.96740
1270.01757	0.96697
1270.98189	0.96658
1271.94622	0.96617
1272.91055	0.96569
1273.87487	0.96505
1274.83920	0.96426
1275.80352	0.96345
1276.76785	0.96274
1277.73218	0.96207
1278.69650	0.96135
1279.66083	0.96057
1280.62515	0.95976
1281.58948	0.95891
1282.55381	0.95803
1283.51813	0.95715
1284.48246	0.95627
1285.44679	0.95529
1286.41111	0.95421
1287.37544	0.95316
1288.33976	0.95225
1289.30409	0.95153
1290.26842	0.95098
1291.23274	0.95057
1292.19707	0.95022
1293.16140	0.94979
1294.12572	0.94920
1295.09005	0.94845
1296.05437	0.94763
1297.01870	0.94679
1297.98303	0.94589
1298.94735	0.94489
1299.91168	0.94391
1300.87600	0.94293
1301.84033	0.94179
1302.80466	0.94050
1303.76898	0.93923
1304.73331	0.93800
1305.69764	0.93676
1306.66196	0.93547
1307.62629	0.93412
1308.59061	0.93270
1309.55494	0.93121
1310.51927	0.92967
1311.48359	0.92807
1312.44792	0.92644
1313.41224	0.92471
1314.37657	0.92289
1315.34090	0.92113
1316.30522	0.91944
1317.26955	0.91779
1318.23388	0.91623
1319.19820	0.91481
1320.16253	0.91347
1321.12685	0.91214
1322.09118	0.91083
1323.05551	0.90964
1324.01983	0.90863
1324.98416	0.90778
1325.94848	0.90704
1326.91281	0.90641
1327.87714	0.90584
1328.84146	0.90540
1329.80579	0.90527
1330.77012	0.90571
1331.73444	0.90681
1332.69877	0.90854
1333.66309	0.91092
1334.62742	0.91399
1335.59175	0.91769
1336.55607	0.92183
1337.52040	0.92606
1338.48473	0.93005
1339.44905	0.93351
1340.41338	0.93626
1341.37770	0.93826
1342.34203	0.93962
1343.30636	0.94042
1344.27068	0.94067
1345.23501	0.94031
1346.19933	0.93942
1347.16366	0.93813
1348.12799	0.93658
1349.09231	0.93482
1350.05664	0.93285
1351.02097	0.93075
1351.98529	0.92876
1352.94962	0.92706
1353.91394	0.92557
1354.87827	0.92411
1355.84260	0.92267
1356.80692	0.92134
1357.77125	0.92008
1358.73557	0.91882
1359.69990	0.91749
1360.66423	0.91605
1361.62855	0.91455
1362.59288	0.91303
1363.55721	0.91152
1364.52153	0.91003
1365.48586	0.90853
1366.45018	0.90701
1367.41451	0.90542
1368.37884	0.90387
1369.34316	0.90244
1370.30749	0.90109
1371.27181	0.89968
1372.23614	0.89821
1373.20047	0.89677
1374.16479	0.89546
1375.12912	0.89416
1376.09345	0.89275
1377.05777	0.89131
1378.02210	0.89000
1378.98642	0.88894
1379.95075	0.88835
1380.91508	0.88850
1381.87940	0.88950
1382.84373	0.89099
1383.80806	0.89217
1384.77238	0.89236
1385.73671	0.89157
1386.70103	0.89029
1387.66536	0.88913
1388.62969	0.88852
1389.59401	0.88860
1390.55834	0.88928
1391.52266	0.89033
1392.48699	0.89163
1393.45132	0.89303
1394.41564	0.89436
1395.37997	0.89548
1396.34430	0.89627
1397.30862	0.89657
1398.27295	0.89641
1399.23727	0.89598
1400.20160	0.89552
1401.16593	0.89514
1402.13025	0.89491
1403.09458	0.89479
1404.05890	0.89481
1405.02323	0.89511
1405.98756	0.89576
1406.95188	0.89673
1407.91621	0.89808
1408.88054	0.89990
1409.84486	0.90234
1410.80919	0.90555
1411.77351	0.90941
1412.73784	0.91354
1413.70217	0.91762
1414.66649	0.92164
1415.63082	0.92573
1416.59514	0.92995
1417.55947	0.93431
1418.52380	0.93893
1419.48812	0.94391
1420.45245	0.94919
1421.41678	0.95455
1422.38110	0.95975
1423.34543	0.96451
1424.30975	0.96863
1425.27408	0.97207
1426.23841	0.97482
1427.20273	0.97701
1428.16706	0.97883
1429.13139	0.98038
1430.09571	0.98166
1431.06004	0.98273
1432.02436	0.98366
1432.98869	0.98444
1433.95302	0.98507
1434.91734	0.98548
1435.88167	0.98566
1436.84599	0.98575
1437.81032	0.98582
1438.77465	0.98588
1439.73897	0.98589
1440.70330	0.98593
1441.66763	0.98607
1442.63195	0.98638
1443.59628	0.98677
1444.56060	0.98702
1445.52493	0.98705
1446.48926	0.98705
1447.45358	0.98716
1448.41791	0.98740
1449.38223	0.98770
1450.34656	0.98791
1451.31089	0.98801
1452.27521	0.98809
1453.23954	0.98813
1454.20387	0.98802
1455.16819	0.98776
1456.13252	0.98741
1457.09684	0.98707
1458.06117	0.98680
1459.02550	0.98654
1459.98982	0.98628
1460.95415	0.98601
1461.91847	0.98561
1462.88280	0.98504
1463.84713	0.98437
1464.81145	0.98365
1465.77578	0.98284
1466.74011	0.98199
1467.70443	0.98119
1468.66876	0.98047
1469.63308	0.97980
1470.59741	0.97906
1471.56174	0.97812
1472.52606	0.97697
1473.49039	0.97553
1474.45472	0.97365
1475.41904	0.97120
1476.38337	0.96823
1477.34769	0.96473
1478.31202	0.96057
1479.27635	0.95559
1480.24067	0.94984
1481.20500	0.94335
1482.16932	0.93628
1483.13365	0.92907
1484.09798	0.92241
1485.06230	0.91706
1486.02663	0.91368
1486.99096	0.91248
1487.95528	0.91307
1488.91961	0.91458
1489.88393	0.91593
1490.84826	0.91609
1491.81259	0.91456
1492.77691	0.91145
1493.74124	0.90725
1494.70556	0.90257
1495.66989	0.89811
1496.63422	0.89451
1497.59854	0.89221
1498.56287	0.89139
1499.52720	0.89190
1500.49152	0.89341
1501.45585	0.89576
1502.42017	0.89901
1503.38450	0.90315
1504.34883	0.90805
1505.31315	0.91344
1506.27748	0.91904
1507.24181	0.92454
1508.20613	0.92962
1509.17046	0.93404
1510.13478	0.93773
1511.09911	0.94082
1512.06344	0.94377
1513.02776	0.94708
1513.99209	0.95093
1514.95641	0.95502
1515.92074	0.95875
1516.88507	0.96165
1517.84939	0.96361
1518.81372	0.96480
1519.77805	0.96545
1520.74237	0.96565
1521.70670	0.96542
1522.67102	0.96481
1523.63535	0.96395
1524.59968	0.96301
1525.56400	0.96206
1526.52833	0.96104
1527.49265	0.95995
1528.45698	0.95889
1529.42131	0.95803
1530.38563	0.95741
1531.34996	0.95692
1532.31429	0.95645
1533.27861	0.95596
1534.24294	0.95544
1535.20726	0.95482
1536.17159	0.95408
1537.13592	0.95338
1538.10024	0.95286
1539.06457	0.95250
1540.02889	0.95227
1540.99322	0.95215
1541.95755	0.95234
1542.92187	0.95296
1543.88620	0.95383
1544.85053	0.95453
1545.81485	0.95489
1546.77918	0.95501
1547.74350	0.95494
1548.70783	0.95460
1549.67216	0.95401
1550.63648	0.95329
1551.60081	0.95238
1552.56514	0.95122
1553.52946	0.94986
1554.49379	0.94841
1555.45811	0.94687
1556.42244	0.94516
1557.38677	0.94332
1558.35109	0.94145
1559.31542	0.93959
1560.27974	0.93773
1561.24407	0.93580
1562.20840	0.93375
1563.17272	0.93157
1564.13705	0.92932
1565.10138	0.92695
1566.06570	0.92436
1567.03003	0.92143
1567.99435	0.91811
1568.95868	0.91452
1569.92301	0.91113
1570.88733	0.90868
1571.85166	0.90784
1572.81598	0.90887
1573.78031	0.91165
1574.74464	0.91564
1575.70896	0.92018
1576.67329	0.92481
1577.63762	0.92909
1578.60194	0.93274
1579.56627	0.93592
1580.53059	0.93891
1581.49492	0.94180
1582.45925	0.94454
1583.42357	0.94722
1584.38790	0.94988
1585.35222	0.95257
1586.31655	0.95535
1587.28088	0.95826
1588.24520	0.96128
1589.20953	0.96442
1590.17386	0.96758
1591.13818	0.97056
1592.10251	0.97325
1593.06683	0.97556
1594.03116	0.97746
1594.99549	0.97904
1595.95981	0.98041
1596.92414	0.98161
1597.88847	0.98271
1598.85279	0.98381
1599.81712	0.98490
1600.78144	0.98581
1601.74577	0.98652
1602.71010	0.98721
1603.67442	0.98792
1604.63875	0.98853
1605.60307	0.98898
1606.56740	0.98938
1607.53173	0.98979
1608.49605	0.99020
1609.46038	0.99048
1610.42471	0.99060
1611.38903	0.99069
1612.35336	0.99081
1613.31768	0.99100
1614.28201	0.99124
1615.24634	0.99141
1616.21066	0.99147
1617.17499	0.99153
1618.13931	0.99171
1619.10364	0.99204
1620.06797	0.99239
1621.03229	0.99264
1621.99662	0.99282
1622.96095	0.99295
1623.92527	0.99303
1624.88960	0.99317
1625.85392	0.99345
1626.81825	0.99375
1627.78258	0.99398
1628.74690	0.99415
1629.71123	0.99427
1630.67555	0.99439
1631.63988	0.99460
1632.60421	0.99487
1633.56853	0.99510
1634.53286	0.99520
1635.49719	0.99521
1636.46151	0.99529
1637.42584	0.99544
1638.39016	0.99560
1639.35449	0.99578
1640.31882	0.99594
1641.28314	0.99600
1642.24747	0.99595
1643.21180	0.99595
1644.17612	0.99607
1645.14045	0.99620
1646.10477	0.99630
1647.06910	0.99641
1648.03343	0.99655
1648.99775	0.99663
1649.96208	0.99655
1650.92640	0.99636
1651.89073	0.99613
1652.85506	0.99602
1653.81938	0.99613
1654.78371	0.99634
1655.74804	0.99643
1656.71236	0.99638
1657.67669	0.99629
1658.64101	0.99630
1659.60534	0.99643
1660.56967	0.99651
1661.53399	0.99640
1662.49832	0.99622
1663.46264	0.99618
1664.42697	0.99621
1665.39130	0.99618
1666.35562	0.99608
1667.31995	0.99595
1668.28428	0.99585
1669.24860	0.99592
1670.21293	0.99610
1671.17725	0.99617
1672.14158	0.99615
1673.10591	0.99612
1674.07023	0.99603
1675.03456	0.99592
1675.99888	0.99596
1676.96321	0.99609
1677.92754	0.99616
1678.89186	0.99619
1679.85619	0.99625
1680.82052	0.99632
1681.78484	0.99631
1682.74917	0.99618
1683.71349	0.99601
1684.67782	0.99594
1685.64215	0.99601
1686.60647	0.99607
1687.57080	0.99604
1688.53513	0.99600
1689.49945	0.99608
1690.46378	0.99623
1691.42810	0.99630
1692.39243	0.99627
1693.35676	0.99628
1694.32108	0.99628
1695.28541	0.99618
1696.24973	0.99609
1697.21406	0.99610
1698.17839	0.99603
1699.14271	0.99578
1700.10704	0.99560
1701.07137	0.99564
1702.03569	0.99572
1703.00002	0.99569
1703.96434	0.99565
1704.92867	0.99568
1705.89300	0.99575
1706.85732	0.99579
1707.82165	0.99573
1708.78597	0.99560
1709.75030	0.99549
1710.71463	0.99546
1711.67895	0.99552
1712.64328	0.99562
1713.60761	0.99574
1714.57193	0.99592
1715.53626	0.99605
1716.50058	0.99604
1717.46491	0.99606
1718.42924	0.99620
1719.39356	0.99628
1720.35789	0.99625
1721.32221	0.99633
1722.28654	0.99658
1723.25087	0.99677
1724.21519	0.99678
1725.17952	0.99676
1726.14385	0.99677
1727.10817	0.99677
1728.07250	0.99677
1729.03682	0.99683
1730.00115	0.99695
1730.96548	0.99702
1731.92980	0.99689
1732.89413	0.99674
1733.85846	0.99675
1734.82278	0.99684
1735.78711	0.99694
1736.75143	0.99713
1737.71576	0.99732
1738.68009	0.99729
1739.64441	0.99709
1740.60874	0.99698
1741.57306	0.99700
1742.53739	0.99698
1743.50172	0.99689
1744.46604	0.99683
1745.43037	0.99682
1746.39470	0.99683
1747.35902	0.99685
1748.32335	0.99680
1749.28767	0.99665
1750.25200	0.99653
1751.21633	0.99661
1752.18065	0.99683
1753.14498	0.99708
1754.10930	0.99727
1755.07363	0.99727
1756.03796	0.99715
1757.00228	0.99710
1757.96661	0.99718
1758.93094	0.99723
1759.89526	0.99716
1760.85959	0.99702
1761.82391	0.99697
1762.78824	0.99705
1763.75257	0.99711
1764.71689	0.99706
1765.68122	0.99704
1766.64554	0.99708
1767.60987	0.99709
1768.57420	0.99708
1769.53852	0.99709
1770.50285	0.99712
1771.46718	0.99714
1772.43150	0.99712
1773.39583	0.99701
1774.36015	0.99690
1775.32448	0.99693
1776.28881	0.99702
1777.25313	0.99691
1778.21746	0.99663
1779.18179	0.99642
1780.14611	0.99635
1781.11044	0.99630
1782.07476	0.99626
1783.03909	0.99632
1784.00342	0.99644
1784.96774	0.99650
1785.93207	0.99653
1786.89639	0.99649
1787.86072	0.99641
1788.82505	0.99644
1789.78937	0.99660
1790.75370	0.99686
1791.71803	0.99704
1792.68235	0.99697
1793.64668	0.99674
1794.61100	0.99664
1795.57533	0.99672
1796.53966	0.99681
1797.50398	0.99677
1798.46831	0.99670
1799.43263	0.99677
1800.39696	0.99701
1801.36129	0.99731
1802.32561	0.99746
1803.28994	0.99735
1804.25427	0.99715
1805.21859	0.99706
1806.18292	0.99709
1807.14724	0.99718
1808.11157	0.99731
1809.07590	0.99742
1810.04022	0.99741
1811.00455	0.99726
1811.96888	0.99712
1812.93320	0.99706
1813.89753	0.99698
1814.86185	0.99686
1815.82618	0.99672
1816.79051	0.99666
1817.75483	0.99670
1818.71916	0.99677
1819.68348	0.99679
1820.64781	0.99680
1821.61214	0.99688
1822.57646	0.99707
1823.54079	0.99727
1824.50512	0.99729
1825.46944	0.99712
1826.43377	0.99695
1827.39809	0.99696
1828.36242	0.99707
1829.32675	0.99703
1830.29107	0.99693
1831.25540	0.99698
1832.21972	0.99713
1833.18405	0.99726
1834.14838	0.99733
1835.11270	0.99723
1836.07703	0.99693
1837.04136	0.99670
1838.00568	0.99669
1838.97001	0.99674
1839.93433	0.99670
1840.89866	0.99668
1841.86299	0.99683
1842.82731	0.99698
1843.79164	0.99694
1844.75596	0.99683
1845.72029	0.99686
1846.68462	0.99691
1847.64894	0.99687
1848.61327	0.99683
1849.57760	0.99689
1850.54192	0.99700
1851.50625	0.99693
1852.47057	0.99663
1853.43490	0.99642
1854.39923	0.99649
1855.36355	0.99675
1856.32788	0.99708
1857.29221	0.99727
1858.25653	0.99712
1859.22086	0.99681
1860.18518	0.99682
1861.14951	0.99716
1862.11384	0.99738
1863.07816	0.99725
1864.04249	0.99697
1865.00681	0.99676
1865.97114	0.99664
1866.93547	0.99663
1867.89979	0.99675
1868.86412	0.99685
1869.82845	0.99679
1870.79277	0.99672
1871.75710	0.99673
1872.72142	0.99674
1873.68575	0.99682
1874.65008	0.99708
1875.61440	0.99728
1876.57873	0.99710
1877.54305	0.99665
1878.50738	0.99624
1879.47171	0.99604
1880.43603	0.99615
1881.40036	0.99643
1882.36469	0.99666
1883.32901	0.99686
1884.29334	0.99689
1885.25766	0.99664
1886.22199	0.99637
1887.18632	0.99622
1888.15064	0.99620
1889.11497	0.99644
1890.07929	0.99681
1891.04362	0.99699
1892.00795	0.99682
1892.97227	0.99644
1893.93660	0.99623
1894.90093	0.99647
1895.86525	0.99706
1896.82958	0.99757
1897.79390	0.99754
1898.75823	0.99708
1899.72256	0.99671
1900.68688	0.99653
1901.65121	0.99653
1902.61554	0.99674
1903.57986	0.99676
1904.54419	0.99636
1905.50851	0.99609
1906.47284	0.99610
1907.43717	0.99595
1908.40149	0.99596
1909.36582	0.99650
1910.33014	0.99700
1911.29447	0.99714
1912.25880	0.99709
1913.22312	0.99689
1914.18745	0.99650
1915.15178	0.99618
1916.11610	0.99624
1917.08043	0.99663
1918.04475	0.99691
1919.00908	0.99699
1919.97341	0.99720
1920.93773	0.99737
1921.90206	0.99730
1922.86638	0.99728
1923.83071	0.99724
1924.79504	0.99697
1925.75936	0.99686
1926.72369	0.99714
1927.68802	0.99731
1928.65234	0.99702
1929.61667	0.99662
1930.58099	0.99635
1931.54532	0.99601
1932.50965	0.99567
1933.47397	0.99556
1934.43830	0.99569
1935.40262	0.99596
1936.36695	0.99629
1937.33128	0.99654
1938.29560	0.99669
1939.25993	0.99680
1940.22426	0.99683
1941.18858	0.99670
1942.15291	0.99664
1943.11723	0.99676
1944.08156	0.99645
1945.04589	0.99563
1946.01021	0.99531
1946.97454	0.99607
1947.93887	0.99709
1948.90319	0.99721
1949.86752	0.99665
1950.83184	0.99646
1951.79617	0.99676
1952.76050	0.99686
1953.72482	0.99653
1954.68915	0.99630
1955.65347	0.99634
1956.61780	0.99620
1957.58213	0.99619
1958.54645	0.99661
1959.51078	0.99666
1960.47511	0.99615
1961.43943	0.99606
1962.40376	0.99673
1963.36808	0.99785
1964.33241	0.99864
1965.29674	0.99809
1966.26106	0.99667
1967.22539	0.99565
1968.18971	0.99515
1969.15404	0.99537
1970.11837	0.99665
1971.08269	0.99785
1972.04702	0.99760
1973.01135	0.99627
1973.97567	0.99534
1974.94000	0.99533
1975.90432	0.99530
1976.86865	0.99449
1977.83298	0.99369
1978.79730	0.99400
1979.76163	0.99516
1980.72595	0.99617
1981.69028	0.99672
1982.65461	0.99714
1983.61893	0.99760
1984.58326	0.99796
1985.54759	0.99799
1986.51191	0.99778
1987.47624	0.99763
1988.44056	0.99735
1989.40489	0.99678
1990.36922	0.99644
1991.33354	0.99666
1992.29787	0.99697
1993.26220	0.99703
1994.22652	0.99681
1995.19085	0.99632
1996.15517	0.99617
1997.11950	0.99627
1998.08383	0.99552
1999.04815	0.99454
2000.01248	0.99488
2000.97680	0.99602
2001.94113	0.99652
2002.90546	0.99639
2003.86978	0.99580
2004.83411	0.99461
2005.79844	0.99368
2006.76276	0.99381
2007.72709	0.99467
2008.69141	0.99552
2009.65574	0.99577
2010.62007	0.99514
2011.58439	0.99398
2012.54872	0.99358
2013.51304	0.99463
2014.47737	0.99574
2015.44170	0.99605
2016.40602	0.99678
2017.37035	0.99804
2018.33468	0.99828
2019.29900	0.99689
2020.26333	0.99488
2021.22765	0.99359
2022.19198	0.99327
2023.15631	0.99347
2024.12063	0.99399
2025.08496	0.99511
2026.04928	0.99643
2027.01361	0.99653
2027.97794	0.99546
2028.94226	0.99505
2029.90659	0.99579
2030.87092	0.99661
2031.83524	0.99671
2032.79957	0.99595
2033.76389	0.99478
2034.72822	0.99434
2035.69255	0.99487
2036.65687	0.99525
2037.62120	0.99504
2038.58553	0.99480
2039.54985	0.99539
2040.51418	0.99661
2041.47850	0.99672
2042.44283	0.99493
2043.40716	0.99263
2044.37148	0.99199
2045.33581	0.99347
2046.30013	0.99518
2047.26446	0.99575
2048.22879	0.99542
2049.19311	0.99477
2050.15744	0.99455
2051.12177	0.99494
2052.08609	0.99528
2053.05042	0.99554
2054.01474	0.99599
2054.97907	0.99592
2055.94340	0.99513
2056.90772	0.99481
2057.87205	0.99558
2058.83637	0.99656
2059.80070	0.99665
2060.76503	0.99557
2061.72935	0.99445
2062.69368	0.99453
2063.65801	0.99527
2064.62233	0.99555
2065.58666	0.99539
2066.55098	0.99525
2067.51531	0.99500
2068.47964	0.99460
2069.44396	0.99472
2070.40829	0.99545
2071.37261	0.99600
2072.33694	0.99612
2073.30127	0.99612
2074.26559	0.99593
2075.22992	0.99547
2076.19425	0.99518
2077.15857	0.99526
2078.12290	0.99549
2079.08722	0.99569
2080.05155	0.99591
2081.01588	0.99609
2081.98020	0.99624
2082.94453	0.99640
2083.90886	0.99656
2084.87318	0.99659
2085.83751	0.99638
2086.80183	0.99635
2087.76616	0.99677
2088.73049	0.99703
2089.69481	0.99657
2090.65914	0.99588
2091.62346	0.99575
2092.58779	0.99607
2093.55212	0.99613
2094.51644	0.99589
2095.48077	0.99586
2096.44510	0.99610
2097.40942	0.99615
2098.37375	0.99579
2099.33807	0.99542
2100.30240	0.99567
2101.26673	0.99618
2102.23105	0.99623
2103.19538	0.99609
2104.15970	0.99623
2105.12403	0.99652
2106.08836	0.99681
2107.05268	0.99659
2108.01701	0.99607
2108.98134	0.99612
2109.94566	0.99652
2110.90999	0.99639
2111.87431	0.99570
2112.83864	0.99512
2113.80297	0.99507
2114.76729	0.99544
2115.73162	0.99569
2116.69594	0.99578
2117.66027	0.99646
2118.62460	0.99734
2119.58892	0.99742
2120.55325	0.99668
2121.51758	0.99573
2122.48190	0.99530
2123.44623	0.99586
2124.41055	0.99685
2125.37488	0.99710
2126.33921	0.99659
2127.30353	0.99615
2128.26786	0.99594
2129.23219	0.99565
2130.19651	0.99544
2131.16084	0.99541
2132.12516	0.99537
2133.08949	0.99551
2134.05382	0.99603
2135.01814	0.99665
2135.98247	0.99729
2136.94679	0.99772
2137.91112	0.99736
2138.87545	0.99649
2139.83977	0.99589
2140.80410	0.99568
2141.76843	0.99561
2142.73275	0.99544
2143.69708	0.99546
2144.66140	0.99633
2145.62573	0.99760
2146.59006	0.99817
2147.55438	0.99742
2148.51871	0.99542
2149.48303	0.99378
2150.44736	0.99411
2151.41169	0.99575
2152.37601	0.99671
2153.34034	0.99643
2154.30467	0.99613
2155.26899	0.99652
2156.23332	0.99749
2157.19764	0.99903
2158.16197	0.99997
2159.12630	0.99842
2160.09062	0.99556
2161.05495	0.99426
2162.01928	0.99430
2162.98360	0.99415
2163.94793	0.99410
2164.91225	0.99435
2165.87658	0.99458
2166.84091	0.99519
2167.80523	0.99590
2168.76956	0.99555
2169.73388	0.99445
2170.69821	0.99366
2171.66254	0.99387
2172.62686	0.99538
2173.59119	0.99681
2174.55552	0.99670
2175.51984	0.99612
2176.48417	0.99614
2177.44849	0.99553
2178.41282	0.99452
2179.37715	0.99491
2180.34147	0.99566
2181.30580	0.99526
2182.27012	0.99517
2183.23445	0.99617
2184.19878	0.99682
2185.16310	0.99667
2186.12743	0.99669
2187.09176	0.99664
2188.05608	0.99604
2189.02041	0.99574
2189.98473	0.99611
2190.94906	0.99645
2191.91339	0.99604
2192.87771	0.99507
2193.84204	0.99434
2194.80636	0.99424
2195.77069	0.99474
2196.73502	0.99537
2197.69934	0.99579
2198.66367	0.99592
2199.62800	0.99570
2200.59232	0.99533
2201.55665	0.99483
2202.52097	0.99471
2203.48530	0.99559
2204.44963	0.99622
2205.41395	0.99562
2206.37828	0.99502
2207.34261	0.99523
2208.30693	0.99553
2209.27126	0.99559
2210.23558	0.99563
2211.19991	0.99575
2212.16424	0.99595
2213.12856	0.99596
2214.09289	0.99536
2215.05721	0.99467
2216.02154	0.99476
2216.98587	0.99525
2217.95019	0.99555
2218.91452	0.99579
2219.87885	0.99616
2220.84317	0.99684
2221.80750	0.99751
2222.77182	0.99745
2223.73615	0.99661
2224.70048	0.99568
2225.66480	0.99559
2226.62913	0.99660
2227.59345	0.99794
2228.55778	0.99863
2229.52211	0.99817
2230.48643	0.99676
2231.45076	0.99558
2232.41509	0.99558
2233.37941	0.99626
2234.34374	0.99665
2235.30806	0.99648
2236.27239	0.99616
2237.23672	0.99626
2238.20104	0.99670
2239.16537	0.99669
2240.12969	0.99624
2241.09402	0.99595
2242.05835	0.99583
2243.02267	0.99584
2243.98700	0.99586
2244.95133	0.99557
2245.91565	0.99522
2246.87998	0.99522
2247.84430	0.99556
2248.80863	0.99587
2249.77296	0.99609
2250.73728	0.99613
2251.70161	0.99605
2252.66594	0.99619
2253.63026	0.99640
2254.59459	0.99591
2255.55891	0.99484
2256.52324	0.99411
2257.48757	0.99429
2258.45189	0.99512
2259.41622	0.99582
2260.38054	0.99616
2261.34487	0.99624
2262.30920	0.99586
2263.27352	0.99531
2264.23785	0.99519
2265.20218	0.99530
2266.16650	0.99546
2267.13083	0.99582
2268.09515	0.99610
2269.05948	0.99593
2270.02381	0.99553
2270.98813	0.99539
2271.95246	0.99570
2272.91678	0.99592
2273.88111	0.99565
2274.84544	0.99529
2275.80976	0.99519
2276.77409	0.99526
2277.73842	0.99559
2278.70274	0.99607
2279.66707	0.99628
2280.63139	0.99612
2281.59572	0.99581
2282.56005	0.99557
2283.52437	0.99559
2284.48870	0.99594
2285.45302	0.99642
2286.41735	0.99673
2287.38168	0.99668
2288.34600	0.99640
2289.31033	0.99629
2290.27466	0.99638
2291.23898	0.99622
2292.20331	0.99588
2293.16763	0.99584
2294.13196	0.99605
2295.09629	0.99612
2296.06061	0.99615
2297.02494	0.99645
2297.98927	0.99677
2298.95359	0.99662
2299.91792	0.99624
2300.88224	0.99612
2301.84657	0.99630
2302.81090	0.99667
2303.77522	0.99714
2304.73955	0.99740
2305.70387	0.99710
2306.66820	0.99651
2307.63253	0.99611
2308.59685	0.99604
2309.56118	0.99622
2310.52551	0.99656
2311.48983	0.99693
2312.45416	0.99712
2313.41848	0.99699
2314.38281	0.99678
2315.34714	0.99670
2316.31146	0.99656
2317.27579	0.99638
2318.24011	0.99648
2319.20444	0.99664
2320.16877	0.99650
2321.13309	0.99618
2322.09742	0.99605
2323.06175	0.99617
2324.02607	0.99635
2324.99040	0.99641
2325.95472	0.99639
2326.91905	0.99642
2327.88338	0.99645
2328.84770	0.99642
2329.81203	0.99642
2330.77635	0.99644
2331.74068	0.99646
2332.70501	0.99646
2333.66933	0.99638
2334.63366	0.99620
2335.59799	0.99606
2336.56231	0.99601
2337.52664	0.99603
2338.49096	0.99607
2339.45529	0.99608
2340.41962	0.99602
2341.38394	0.99601
2342.34827	0.99611
2343.31260	0.99625
2344.27692	0.99632
2345.24125	0.99638
2346.20557	0.99658
2347.16990	0.99684
2348.13423	0.99694
2349.09855	0.99681
2350.06288	0.99660
2351.02720	0.99643
2351.99153	0.99635
2352.95586	0.99637
2353.92018	0.99648
2354.88451	0.99665
2355.84884	0.99672
2356.81316	0.99668
2357.77749	0.99673
2358.74181	0.99697
2359.70614	0.99717
2360.67047	0.99710
2361.63479	0.99677
2362.59912	0.99647
2363.56344	0.99642
2364.52777	0.99660
2365.49210	0.99689
2366.45642	0.99712
2367.42075	0.99723
2368.38508	0.99714
2369.34940	0.99692
2370.31373	0.99683
2371.27805	0.99689
2372.24238	0.99677
2373.20671	0.99648
2374.17103	0.99629
2375.13536	0.99628
2376.09968	0.99642
2377.06401	0.99667
2378.02834	0.99684
2378.99266	0.99678
2379.95699	0.99657
2380.92132	0.99624
2381.88564	0.99589
2382.84997	0.99583
2383.81429	0.99623
2384.77862	0.99682
2385.74295	0.99705
2386.70727	0.99674
2387.67160	0.99634
2388.63593	0.99630
2389.60025	0.99639
2390.56458	0.99626
2391.52890	0.99616
2392.49323	0.99630
2393.45756	0.99647
2394.42188	0.99648
2395.38621	0.99638
2396.35053	0.99630
2397.31486	0.99630
2398.27919	0.99630
2399.24351	0.99643
2400.20784	0.99653
2401.17217	0.99632
2402.13649	0.99619
2403.10082	0.99632
2404.06514	0.99639
2405.02947	0.99646
2405.99380	0.99654
2406.95812	0.99622
2407.92245	0.99574
2408.88677	0.99563
2409.85110	0.99579
2410.81543	0.99593
2411.77975	0.99604
2412.74408	0.99619
2413.70841	0.99639
2414.67273	0.99676
2415.63706	0.99697
2416.60138	0.99683
2417.56571	0.99673
2418.53004	0.99663
2419.49436	0.99639
2420.45869	0.99630
2421.42301	0.99637
2422.38734	0.99621
2423.35167	0.99593
2424.31599	0.99608
2425.28032	0.99659
2426.24465	0.99688
2427.20897	0.99685
2428.17330	0.99670
2429.13762	0.99652
2430.10195	0.99635
2431.06628	0.99624
2432.03060	0.99633
2432.99493	0.99666
2433.95926	0.99701
2434.92358	0.99714
2435.88791	0.99688
2436.85223	0.99630
2437.81656	0.99599
2438.78089	0.99633
2439.74521	0.99683
2440.70954	0.99687
2441.67386	0.99630
2442.63819	0.99573
2443.60252	0.99583
2444.56684	0.99638
2445.53117	0.99672
2446.49550	0.99658
2447.45982	0.99607
2448.42415	0.99570
2449.38847	0.99570
2450.35280	0.99591
2451.31713	0.99633
2452.28145	0.99662
2453.24578	0.99629
2454.21010	0.99564
2455.17443	0.99535
2456.13876	0.99568
2457.10308	0.99619
2458.06741	0.99632
2459.03174	0.99607
2459.99606	0.99597
2460.96039	0.99627
2461.92471	0.99657
2462.88904	0.99658
2463.85337	0.99647
2464.81769	0.99638
2465.78202	0.99625
2466.74635	0.99626
2467.71067	0.99652
2468.67500	0.99681
2469.63932	0.99704
2470.60365	0.99722
2471.56798	0.99725
2472.53230	0.99699
2473.49663	0.99648
2474.46095	0.99607
2475.42528	0.99600
2476.38961	0.99609
2477.35393	0.99610
2478.31826	0.99600
2479.28259	0.99582
2480.24691	0.99572
2481.21124	0.99581
2482.17556	0.99582
2483.13989	0.99545
2484.10422	0.99491
2485.06854	0.99453
2486.03287	0.99459
2486.99719	0.99534
2487.96152	0.99617
2488.92585	0.99613
2489.89017	0.99554
2490.85450	0.99535
2491.81883	0.99569
2492.78315	0.99612
2493.74748	0.99632
2494.71180	0.99616
2495.67613	0.99603
2496.64046	0.99642
2497.60478	0.99701
2498.56911	0.99721
2499.53343	0.99701
2500.49776	0.99658
2501.46209	0.99608
2502.42641	0.99583
2503.39074	0.99584
2504.35507	0.99609
2505.31939	0.99660
2506.28372	0.99705
2507.24804	0.99714
2508.21237	0.99698
2509.17670	0.99675
2510.14102	0.99676
2511.10535	0.99709
2512.06968	0.99711
2513.03400	0.99665
2513.99833	0.99630
2514.96265	0.99632
2515.92698	0.99646
2516.89131	0.99648
2517.85563	0.99623
2518.81996	0.99588
2519.78428	0.99593
2520.74861	0.99645
2521.71294	0.99683
2522.67726	0.99663
2523.64159	0.99618
2524.60592	0.99601
2525.57024	0.99623
2526.53457	0.99668
2527.49889	0.99705
2528.46322	0.99707
2529.42755	0.99685
2530.39187	0.99671
2531.35620	0.99693
2532.32052	0.99728
2533.28485	0.99717
2534.24918	0.99662
2535.21350	0.99627
2536.17783	0.99641
2537.14216	0.99664
2538.10648	0.99667
2539.07081	0.99666
2540.03513	0.99681
2540.99946	0.99715
2541.96379	0.99756
2542.92811	0.99772
2543.89244	0.99753
2544.85676	0.99714
2545.82109	0.99679
2546.78542	0.99668
2547.74974	0.99669
2548.71407	0.99654
2549.67840	0.99634
2550.64272	0.99644
2551.60705	0.99687
2552.57137	0.99722
2553.53570	0.99728
2554.50003	0.99715
2555.46435	0.99688
2556.42868	0.99668
2557.39301	0.99662
2558.35733	0.99649
2559.32166	0.99616
2560.28598	0.99583
2561.25031	0.99579
2562.21464	0.99621
2563.17896	0.99676
2564.14329	0.99703
2565.10761	0.99706
2566.07194	0.99706
2567.03627	0.99704
2568.00059	0.99684
2568.96492	0.99646
2569.92925	0.99615
2570.89357	0.99597
2571.85790	0.99589
2572.82222	0.99600
2573.78655	0.99605
2574.75088	0.99569
2575.71520	0.99535
2576.67953	0.99563
2577.64385	0.99622
2578.60818	0.99650
2579.57251	0.99633
2580.53683	0.99600
2581.50116	0.99582
2582.46549	0.99559
2583.42981	0.99525
2584.39414	0.99520
2585.35846	0.99547
2586.32279	0.99577
2587.28712	0.99603
2588.25144	0.99636
2589.21577	0.99664
2590.18009	0.99658
2591.14442	0.99632
2592.10875	0.99611
2593.07307	0.99580
2594.03740	0.99538
2595.00173	0.99503
2595.96605	0.99481
2596.93038	0.99487
2597.89470	0.99512
2598.85903	0.99538
2599.82336	0.99561
2600.78768	0.99572
2601.75201	0.99575
2602.71634	0.99587
2603.68066	0.99594
2604.64499	0.99583
2605.60931	0.99574
2606.57364	0.99566
2607.53797	0.99554
2608.50229	0.99554
2609.46662	0.99572
2610.43094	0.99585
2611.39527	0.99577
2612.35960	0.99592
2613.32392	0.99645
2614.28825	0.99669
2615.25258	0.99626
2616.21690	0.99576
2617.18123	0.99567
2618.14555	0.99585
2619.10988	0.99599
2620.07421	0.99589
2621.03853	0.99576
2622.00286	0.99579
2622.96718	0.99573
2623.93151	0.99569
2624.89584	0.99589
2625.86016	0.99597
2626.82449	0.99578
2627.78882	0.99568
2628.75314	0.99579
2629.71747	0.99590
2630.68179	0.99589
2631.64612	0.99589
2632.61045	0.99603
2633.57477	0.99617
2634.53910	0.99618
2635.50342	0.99631
2636.46775	0.99660
2637.43208	0.99679
2638.39640	0.99680
2639.36073	0.99672
2640.32506	0.99669
2641.28938	0.99673
2642.25371	0.99667
2643.21803	0.99641
2644.18236	0.99611
2645.14669	0.99597
2646.11101	0.99602
2647.07534	0.99617
2648.03967	0.99630
2649.00399	0.99634
2649.96832	0.99626
2650.93264	0.99616
2651.89697	0.99620
2652.86130	0.99633
2653.82562	0.99629
2654.78995	0.99609
2655.75427	0.99593
2656.71860	0.99591
2657.68293	0.99603
2658.64725	0.99605
2659.61158	0.99593
2660.57591	0.99588
2661.54023	0.99603
2662.50456	0.99628
2663.46888	0.99634
2664.43321	0.99610
2665.39754	0.99574
2666.36186	0.99546
2667.32619	0.99530
2668.29051	0.99526
2669.25484	0.99539
2670.21917	0.99556
2671.18349	0.99553
2672.14782	0.99542
2673.11215	0.99563
2674.07647	0.99602
2675.04080	0.99614
2676.00512	0.99598
2676.96945	0.99590
2677.93378	0.99599
2678.89810	0.99602
2679.86243	0.99591
2680.82675	0.99588
2681.79108	0.99600
2682.75541	0.99624
2683.71973	0.99640
2684.68406	0.99625
2685.64839	0.99590
2686.61271	0.99564
2687.57704	0.99559
2688.54136	0.99577
2689.50569	0.99590
2690.47002	0.99573
2691.43434	0.99555
2692.39867	0.99573
2693.36300	0.99610
2694.32732	0.99626
2695.29165	0.99615
2696.25597	0.99602
2697.22030	0.99597
2698.18463	0.99600
2699.14895	0.99612
2700.11328	0.99624
2701.07760	0.99627
2702.04193	0.99633
2703.00626	0.99652
2703.97058	0.99668
2704.93491	0.99662
2705.89924	0.99634
2706.86356	0.99605
2707.82789	0.99603
2708.79221	0.99632
2709.75654	0.99661
2710.72087	0.99672
2711.68519	0.99670
2712.64952	0.99656
2713.61384	0.99632
2714.57817	0.99610
2715.54250	0.99607
2716.50682	0.99628
2717.47115	0.99656
2718.43548	0.99673
2719.39980	0.99667
2720.36413	0.99636
2721.32845	0.99598
2722.29278	0.99580
2723.25711	0.99585
2724.22143	0.99590
2725.18576	0.99592
2726.15008	0.99605
2727.11441	0.99619
2728.07874	0.99626
2729.04306	0.99622
2730.00739	0.99603
2730.97172	0.99585
2731.93604	0.99590
2732.90037	0.99608
2733.86469	0.99630
2734.82902	0.99647
2735.79335	0.99636
2736.75767	0.99604
2737.72200	0.99587
2738.68633	0.99593
2739.65065	0.99601
2740.61498	0.99596
2741.57930	0.99586
2742.54363	0.99584
2743.50796	0.99585
2744.47228	0.99571
2745.43661	0.99563
2746.40093	0.99599
2747.36526	0.99642
2748.32959	0.99645
2749.29391	0.99624
2750.25824	0.99601
2751.22257	0.99579
2752.18689	0.99567
2753.15122	0.99568
2754.11554	0.99588
2755.07987	0.99618
2756.04420	0.99621
2757.00852	0.99592
2757.97285	0.99576
2758.93717	0.99584
2759.90150	0.99580
2760.86583	0.99570
2761.83015	0.99588
2762.79448	0.99613
2763.75881	0.99613
2764.72313	0.99603
2765.68746	0.99601
2766.65178	0.99604
2767.61611	0.99601
2768.58044	0.99584
2769.54476	0.99565
2770.50909	0.99565
2771.47341	0.99579
2772.43774	0.99581
2773.40207	0.99569
2774.36639	0.99552
2775.33072	0.99531
2776.29505	0.99522
2777.25937	0.99531
2778.22370	0.99546
2779.18802	0.99560
2780.15235	0.99573
2781.11668	0.99583
2782.08100	0.99580
2783.04533	0.99568
2784.00966	0.99555
2784.97398	0.99538
2785.93831	0.99529
2786.90263	0.99533
2787.86696	0.99536
2788.83129	0.99538
2789.79561	0.99551
2790.75994	0.99559
2791.72426	0.99547
2792.68859	0.99523
2793.65292	0.99520
2794.61724	0.99542
2795.58157	0.99569
2796.54590	0.99587
2797.51022	0.99584
2798.47455	0.99569
2799.43887	0.99575
2800.40320	0.99606
2801.36753	0.99635
2802.33185	0.99651
2803.29618	0.99652
2804.26050	0.99646
2805.22483	0.99649
2806.18916	0.99659
2807.15348	0.99660
2808.11781	0.99654
2809.08214	0.99647
2810.04646	0.99650
2811.01079	0.99656
2811.97511	0.99657
2812.93944	0.99644
2813.90377	0.99596
2814.86809	0.99546
2815.83242	0.99557
2816.79675	0.99609
2817.76107	0.99634
2818.72540	0.99616
2819.68972	0.99596
2820.65405	0.99585
2821.61838	0.99571
2822.58270	0.99560
2823.54703	0.99574
2824.51135	0.99604
2825.47568	0.99612
2826.44001	0.99594
2827.40433	0.99591
2828.36866	0.99614
2829.33299	0.99628
2830.29731	0.99612
2831.26164	0.99584
2832.22596	0.99572
2833.19029	0.99574
2834.15462	0.99571
2835.11894	0.99562
2836.08327	0.99552
2837.04759	0.99552
2838.01192	0.99576
2838.97625	0.99610
2839.94057	0.99612
2840.90490	0.99579
2841.86923	0.99552
2842.83355	0.99548
2843.79788	0.99558
2844.76220	0.99576
2845.72653	0.99579
2846.69086	0.99564
2847.65518	0.99558
2848.61951	0.99564
2849.58383	0.99574
2850.54816	0.99578
2851.51249	0.99576
2852.47681	0.99587
2853.44114	0.99609
2854.40547	0.99609
2855.36979	0.99587
2856.33412	0.99587
2857.29844	0.99611
2858.26277	0.99617
2859.22710	0.99593
2860.19142	0.99564
2861.15575	0.99552
2862.12008	0.99562
2863.08440	0.99580
2864.04873	0.99594
2865.01305	0.99600
2865.97738	0.99576
2866.94171	0.99533
2867.90603	0.99516
2868.87036	0.99522
2869.83468	0.99516
2870.79901	0.99499
2871.76334	0.99491
2872.72766	0.99494
2873.69199	0.99498
2874.65632	0.99517
2875.62064	0.99548
2876.58497	0.99554
2877.54929	0.99532
2878.51362	0.99508
2879.47795	0.99496
2880.44227	0.99499
2881.40660	0.99501
2882.37092	0.99500
2883.33525	0.99497
2884.29958	0.99474
2885.26390	0.99435
2886.22823	0.99401
2887.19256	0.99388
2888.15688	0.99398
2889.12121	0.99397
2890.08553	0.99372
2891.04986	0.99366
2892.01419	0.99395
2892.97851	0.99428
2893.94284	0.99450
2894.90716	0.99447
2895.87149	0.99425
2896.83582	0.99420
2897.80014	0.99425
2898.76447	0.99417
2899.72880	0.99418
2900.69312	0.99431
2901.65745	0.99418
2902.62177	0.99392
2903.58610	0.99398
2904.55043	0.99433
2905.51475	0.99466
2906.47908	0.99482
2907.44341	0.99489
2908.40773	0.99496
2909.37206	0.99497
2910.33638	0.99500
2911.30071	0.99509
2912.26504	0.99502
2913.22936	0.99484
2914.19369	0.99486
2915.15801	0.99500
2916.12234	0.99500
2917.08667	0.99496
2918.05099	0.99501
2919.01532	0.99506
2919.97965	0.99504
2920.94397	0.99494
2921.90830	0.99479
2922.87262	0.99472
2923.83695	0.99484
2924.80128	0.99506
2925.76560	0.99543
2926.72993	0.99581
2927.69425	0.99572
2928.65858	0.99527
2929.62291	0.99511
2930.58723	0.99528
2931.55156	0.99533
2932.51589	0.99514
2933.48021	0.99507
2934.44454	0.99524
2935.40886	0.99543
2936.37319	0.99551
2937.33752	0.99545
2938.30184	0.99544
2939.26617	0.99572
2940.23049	0.99610
2941.19482	0.99610
2942.15915	0.99583
2943.12347	0.99587
2944.08780	0.99619
2945.05213	0.99620
2946.01645	0.99577
2946.98078	0.99523
2947.94510	0.99502
2948.90943	0.99530
2949.87376	0.99589
2950.83808	0.99641
2951.80241	0.99631
2952.76674	0.99571
2953.73106	0.99540
2954.69539	0.99560
2955.65971	0.99600
2956.62404	0.99630
2957.58837	0.99639
2958.55269	0.99640
2959.51702	0.99655
2960.48134	0.99676
2961.44567	0.99667
2962.41000	0.99621
2963.37432	0.99577
2964.33865	0.99556
2965.30298	0.99560
2966.26730	0.99591
2967.23163	0.99620
2968.19595	0.99632
2969.16028	0.99651
2970.12461	0.99671
2971.08893	0.99666
2972.05326	0.99643
2973.01758	0.99613
2973.98191	0.99593
2974.94624	0.99601
2975.91056	0.99624
2976.87489	0.99626
2977.83922	0.99600
2978.80354	0.99586
2979.76787	0.99605
2980.73219	0.99639
2981.69652	0.99669
2982.66085	0.99669
2983.62517	0.99635
2984.58950	0.99607
2985.55382	0.99594
2986.51815	0.99567
2987.48248	0.99537
2988.44680	0.99537
2989.41113	0.99560
2990.37546	0.99580
2991.33978	0.99580
2992.30411	0.99568
2993.26843	0.99555
2994.23276	0.99534
2995.19709	0.99530
2996.16141	0.99560
2997.12574	0.99574
2998.09007	0.99541
2999.05439	0.99504
3000.01872	0.99497
3000.98304	0.99501
3001.94737	0.99508
3002.91170	0.99532
3003.87602	0.99567
3004.84035	0.99590
3005.80467	0.99590
3006.76900	0.99585
3007.73333	0.99576
3008.69765	0.99564
3009.66198	0.99567
3010.62631	0.99574
3011.59063	0.99575
3012.55496	0.99586
3013.51928	0.99605
3014.48361	0.99608
3015.44794	0.99581
3016.41226	0.99543
3017.37659	0.99532
3018.34091	0.99561
3019.30524	0.99602
3020.26957	0.99637
3021.23389	0.99653
3022.19822	0.99639
3023.16255	0.99619
3024.12687	0.99609
3025.09120	0.99593
3026.05552	0.99574
3027.01985	0.99574
3027.98418	0.99596
3028.94850	0.99613
3029.91283	0.99619
3030.87715	0.99626
3031.84148	0.99623
3032.80581	0.99597
3033.77013	0.99565
3034.73446	0.99553
3035.69879	0.99567
3036.66311	0.99595
3037.62744	0.99611
3038.59176	0.99612
3039.55609	0.99619
3040.52042	0.99627
3041.48474	0.99620
3042.44907	0.99609
3043.41340	0.99621
3044.37772	0.99646
3045.34205	0.99648
3046.30637	0.99635
3047.27070	0.99639
3048.23503	0.99653
3049.19935	0.99662
3050.16368	0.99674
3051.12800	0.99690
3052.09233	0.99695
3053.05666	0.99677
3054.02098	0.99641
3054.98531	0.99617
3055.94964	0.99625
3056.91396	0.99652
3057.87829	0.99670
3058.84261	0.99675
3059.80694	0.99666
3060.77127	0.99650
3061.73559	0.99644
3062.69992	0.99649
3063.66424	0.99646
3064.62857	0.99626
3065.59290	0.99599
3066.55722	0.99591
3067.52155	0.99614
3068.48588	0.99646
3069.45020	0.99650
3070.41453	0.99620
3071.37885	0.99585
3072.34318	0.99568
3073.30751	0.99574
3074.27183	0.99600
3075.23616	0.99616
3076.20048	0.99602
3077.16481	0.99581
3078.12914	0.99580
3079.09346	0.99586
3080.05779	0.99574
3081.02212	0.99555
3081.98644	0.99546
3082.95077	0.99538
3083.91509	0.99511
3084.87942	0.99472
3085.84375	0.99449
3086.80807	0.99458
3087.77240	0.99464
3088.73673	0.99417
3089.70105	0.99283
3090.66538	0.99072
3091.62970	0.98871
3092.59403	0.98805
3093.55836	0.98915
3094.52268	0.99117
3095.48701	0.99292
3096.45133	0.99379
3097.41566	0.99377
3098.37999	0.99327
3099.34431	0.99285
3100.30864	0.99266
3101.27297	0.99257
3102.23729	0.99278
3103.20162	0.99323
3104.16594	0.99339
3105.13027	0.99335
3106.09460	0.99369
3107.05892	0.99435
3108.02325	0.99476
3108.98757	0.99484
3109.95190	0.99507
3110.91623	0.99549
3111.88055	0.99573
3112.84488	0.99574
3113.80921	0.99572
3114.77353	0.99575
3115.73786	0.99580
3116.70218	0.99584
3117.66651	0.99597
3118.63084	0.99622
3119.59516	0.99631
3120.55949	0.99618
3121.52382	0.99623
3122.48814	0.99644
3123.45247	0.99649
3124.41679	0.99654
3125.38112	0.99688
3126.34545	0.99726
3127.30977	0.99723
3128.27410	0.99674
3129.23842	0.99623
3130.20275	0.99605
3131.16708	0.99623
3132.13140	0.99661
3133.09573	0.99678
3134.06006	0.99654
3135.02438	0.99630
3135.98871	0.99630
3136.95303	0.99651
3137.91736	0.99684
3138.88169	0.99713
3139.84601	0.99713
3140.81034	0.99689
3141.77466	0.99670
3142.73899	0.99673
3143.70332	0.99687
3144.66764	0.99684
3145.63197	0.99650
3146.59630	0.99585
3147.56062	0.99525
3148.52495	0.99526
3149.48927	0.99592
3150.45360	0.99668
3151.41793	0.99706
3152.38225	0.99710
3153.34658	0.99711
3154.31090	0.99716
3155.27523	0.99711
3156.23956	0.99693
3157.20388	0.99669
3158.16821	0.99655
3159.13254	0.99661
3160.09686	0.99679
3161.06119	0.99708
3162.02551	0.99733
3162.98984	0.99723
3163.95417	0.99681
3164.91849	0.99653
3165.88282	0.99657
3166.84715	0.99682
3167.81147	0.99718
3168.77580	0.99748
3169.74012	0.99761
3170.70445	0.99758
3171.66878	0.99744
3172.63310	0.99747
3173.59743	0.99776
3174.56175	0.99794
3175.52608	0.99791
3176.49041	0.99779
3177.45473	0.99741
3178.41906	0.99675
3179.38339	0.99634
3180.34771	0.99672
3181.31204	0.99746
3182.27636	0.99764
3183.24069	0.99725
3184.20502	0.99679
3185.16934	0.99659
3186.13367	0.99694
3187.09799	0.99757
3188.06232	0.99761
3189.02665	0.99704
3189.99097	0.99668
3190.95530	0.99688
3191.91963	0.99717
3192.88395	0.99721
3193.84828	0.99724
3194.81260	0.99749
3195.77693	0.99785
3196.74126	0.99804
3197.70558	0.99785
3198.66991	0.99741
3199.63423	0.99700
3200.59856	0.99671
3201.56289	0.99659
3202.52721	0.99657
3203.49154	0.99673
3204.45587	0.99716
3205.42019	0.99748
3206.38452	0.99736
3207.34884	0.99718
3208.31317	0.99727
3209.27750	0.99739
3210.24182	0.99727
3211.20615	0.99707
3212.17048	0.99701
3213.13480	0.99716
3214.09913	0.99734
3215.06345	0.99733
3216.02778	0.99727
3216.99211	0.99733
3217.95643	0.99728
3218.92076	0.99698
3219.88508	0.99677
3220.84941	0.99700
3221.81374	0.99753
3222.77806	0.99782
3223.74239	0.99777
3224.70672	0.99775
3225.67104	0.99773
3226.63537	0.99744
3227.59969	0.99714
3228.56402	0.99712
3229.52835	0.99704
3230.49267	0.99679
3231.45700	0.99691
3232.42132	0.99736
3233.38565	0.99754
3234.34998	0.99762
3235.31430	0.99787
3236.27863	0.99802
3237.24296	0.99785
3238.20728	0.99757
3239.17161	0.99745
3240.13593	0.99758
3241.10026	0.99772
3242.06459	0.99751
3243.02891	0.99712
3243.99324	0.99706
3244.95756	0.99735
3245.92189	0.99745
3246.88622	0.99715
3247.85054	0.99677
3248.81487	0.99661
3249.77920	0.99683
3250.74352	0.99744
3251.70785	0.99801
3252.67217	0.99807
3253.63650	0.99779
3254.60083	0.99753
3255.56515	0.99737
3256.52948	0.99729
3257.49381	0.99742
3258.45813	0.99755
3259.42246	0.99746
3260.38678	0.99729
3261.35111	0.99731
3262.31544	0.99752
3263.27976	0.99768
3264.24409	0.99772
3265.20841	0.99765
3266.17274	0.99751
3267.13707	0.99722
3268.10139	0.99672
3269.06572	0.99653
3270.03005	0.99704
3270.99437	0.99768
3271.95870	0.99784
3272.92302	0.99763
3273.88735	0.99755
3274.85168	0.99749
3275.81600	0.99721
3276.78033	0.99705
3277.74465	0.99700
3278.70898	0.99659
3279.67331	0.99627
3280.63763	0.99664
3281.60196	0.99725
3282.56629	0.99759
3283.53061	0.99794
3284.49494	0.99838
3285.45926	0.99855
3286.42359	0.99832
3287.38792	0.99786
3288.35224	0.99714
3289.31657	0.99641
3290.28089	0.99636
3291.24522	0.99680
3292.20955	0.99693
3293.17387	0.99665
3294.13820	0.99650
3295.10253	0.99662
3296.06685	0.99689
3297.03118	0.99743
3297.99550	0.99778
3298.95983	0.99753
3299.92416	0.99717
3300.88848	0.99704
3301.85281	0.99685
3302.81714	0.99666
3303.78146	0.99664
3304.74579	0.99665
3305.71011	0.99669
3306.67444	0.99683
3307.63877	0.99694
3308.60309	0.99699
3309.56742	0.99704
3310.53174	0.99735
3311.49607	0.99792
3312.46040	0.99806
3313.42472	0.99744
3314.38905	0.99683
3315.35338	0.99693
3316.31770	0.99752
3317.28203	0.99784
3318.24635	0.99742
3319.21068	0.99680
3320.17501	0.99664
3321.13933	0.99678
3322.10366	0.99680
3323.06798	0.99660
3324.03231	0.99623
3324.99664	0.99586
3325.96096	0.99592
3326.92529	0.99653
3327.88962	0.99722
3328.85394	0.99745
3329.81827	0.99722
3330.78259	0.99676
3331.74692	0.99650
3332.71125	0.99696
3333.67557	0.99778
3334.63990	0.99812
3335.60422	0.99785
3336.56855	0.99747
3337.53288	0.99724
3338.49720	0.99704
3339.46153	0.99669
3340.42586	0.99647
3341.39018	0.99658
3342.35451	0.99672
3343.31883	0.99661
3344.28316	0.99636
3345.24749	0.99634
3346.21181	0.99675
3347.17614	0.99730
3348.14047	0.99752
3349.10479	0.99747
3350.06912	0.99749
3351.03344	0.99751
3351.99777	0.99728
3352.96210	0.99704
3353.92642	0.99706
3354.89075	0.99722
3355.85507	0.99726
3356.81940	0.99706
3357.78373	0.99674
3358.74805	0.99657
3359.71238	0.99658
3360.67671	0.99679
3361.64103	0.99724
3362.60536	0.99759
3363.56968	0.99758
3364.53401	0.99744
3365.49834	0.99727
3366.46266	0.99691
3367.42699	0.99651
3368.39131	0.99642
3369.35564	0.99654
3370.31997	0.99646
3371.28429	0.99624
3372.24862	0.99624
3373.21295	0.99653
3374.17727	0.99687
3375.14160	0.99708
3376.10592	0.99730
3377.07025	0.99766
3378.03458	0.99786
3378.99890	0.99765
3379.96323	0.99725
3380.92755	0.99696
3381.89188	0.99717
3382.85621	0.99787
3383.82053	0.99834
3384.78486	0.99822
3385.74919	0.99775
3386.71351	0.99710
3387.67784	0.99664
3388.64216	0.99654
3389.60649	0.99638
3390.57082	0.99630
3391.53514	0.99680
3392.49947	0.99741
3393.46380	0.99751
3394.42812	0.99744
3395.39245	0.99745
3396.35677	0.99734
3397.32110	0.99717
3398.28543	0.99697
3399.24975	0.99683
3400.21408	0.99724
3401.17840	0.99788
3402.14273	0.99808
3403.10706	0.99793
3404.07138	0.99788
3405.03571	0.99802
3406.00004	0.99815
3406.96436	0.99805
3407.92869	0.99763
3408.89301	0.99720
3409.85734	0.99730
3410.82167	0.99770
3411.78599	0.99781
3412.75032	0.99772
3413.71464	0.99768
3414.67897	0.99740
3415.64330	0.99667
3416.60762	0.99601
3417.57195	0.99608
3418.53628	0.99673
3419.50060	0.99728
3420.46493	0.99741
3421.42925	0.99736
3422.39358	0.99732
3423.35791	0.99719
3424.32223	0.99702
3425.28656	0.99700
3426.25088	0.99719
3427.21521	0.99740
3428.17954	0.99736
3429.14386	0.99708
3430.10819	0.99687
3431.07252	0.99696
3432.03684	0.99730
3433.00117	0.99748
3433.96549	0.99714
3434.92982	0.99661
3435.89415	0.99647
3436.85847	0.99679
3437.82280	0.99718
3438.78713	0.99745
3439.75145	0.99763
3440.71578	0.99763
3441.68010	0.99758
3442.64443	0.99765
3443.60876	0.99770
3444.57308	0.99764
3445.53741	0.99757
3446.50173	0.99770
3447.46606	0.99789
3448.43039	0.99778
3449.39471	0.99747
3450.35904	0.99729
3451.32337	0.99745
3452.28769	0.99778
3453.25202	0.99794
3454.21634	0.99776
3455.18067	0.99741
3456.14500	0.99701
3457.10932	0.99656
3458.07365	0.99629
3459.03797	0.99644
3460.00230	0.99668
3460.96663	0.99658
3461.93095	0.99633
3462.89528	0.99640
3463.85961	0.99685
3464.82393	0.99729
3465.78826	0.99752
3466.75258	0.99774
3467.71691	0.99817
3468.68124	0.99856
3469.64556	0.99855
3470.60989	0.99823
3471.57422	0.99784
3472.53854	0.99750
3473.50287	0.99741
3474.46719	0.99767
3475.43152	0.99799
3476.39585	0.99799
3477.36017	0.99764
3478.32450	0.99704
3479.28882	0.99646
3480.25315	0.99634
3481.21748	0.99672
3482.18180	0.99735
3483.14613	0.99798
3484.11046	0.99831
3485.07478	0.99817
3486.03911	0.99785
3487.00343	0.99745
3487.96776	0.99691
3488.93209	0.99663
3489.89641	0.99686
3490.86074	0.99721
3491.82506	0.99726
3492.78939	0.99700
3493.75372	0.99697
3494.71804	0.99741
3495.68237	0.99794
3496.64670	0.99826
3497.61102	0.99812
3498.57535	0.99734
3499.53967	0.99642
3500.50400	0.99605
3501.46833	0.99627
3502.43265	0.99677
3503.39698	0.99729
3504.36130	0.99738
3505.32563	0.99697
3506.28996	0.99656
3507.25428	0.99636
3508.21861	0.99631
3509.18294	0.99636
3510.14726	0.99655
3511.11159	0.99681
3512.07591	0.99704
3513.04024	0.99726
3514.00457	0.99743
3514.96889	0.99753
3515.93322	0.99761
3516.89755	0.99773
3517.86187	0.99787
3518.82620	0.99778
3519.79052	0.99739
3520.75485	0.99705
3521.71918	0.99676
3522.68350	0.99627
3523.64783	0.99614
3524.61215	0.99715
3525.57648	0.99874
3526.54081	0.99974
3527.50513	0.99989
3528.46946	0.99962
3529.43379	0.99900
3530.39811	0.99801
3531.36244	0.99712
3532.32676	0.99674
3533.29109	0.99696
3534.25542	0.99738
3535.21974	0.99739
3536.18407	0.99717
3537.14839	0.99732
3538.11272	0.99778
3539.07705	0.99815
3540.04137	0.99849
3541.00570	0.99873
3541.97003	0.99825
3542.93435	0.99724
3543.89868	0.99666
3544.86300	0.99683
3545.82733	0.99759
3546.79166	0.99852
3547.75598	0.99868
3548.72031	0.99785
3549.68463	0.99722
3550.64896	0.99767
3551.61329	0.99844
3552.57761	0.99859
3553.54194	0.99826
3554.50627	0.99806
3555.47059	0.99809
3556.43492	0.99797
3557.39924	0.99746
3558.36357	0.99687
3559.32790	0.99669
3560.29222	0.99695
3561.25655	0.99739
3562.22088	0.99774
3563.18520	0.99768
3564.14953	0.99725
3565.11385	0.99674
3566.07818	0.99637
3567.04251	0.99630
3568.00683	0.99641
3568.97116	0.99637
3569.93548	0.99631
3570.89981	0.99657
3571.86414	0.99712
3572.82846	0.99757
3573.79279	0.99750
3574.75712	0.99712
3575.72144	0.99695
3576.68577	0.99731
3577.65009	0.99805
3578.61442	0.99851
3579.57875	0.99841
3580.54307	0.99792
3581.50740	0.99712
3582.47172	0.99626
3583.43605	0.99603
3584.40038	0.99651
3585.36470	0.99696
3586.32903	0.99692
3587.29336	0.99655
3588.25768	0.99631
3589.22201	0.99666
3590.18633	0.99750
3591.15066	0.99836
3592.11499	0.99875
3593.07931	0.99823
3594.04364	0.99717
3595.00796	0.99647
3595.97229	0.99668
3596.93662	0.99769
3597.90094	0.99846
3598.86527	0.99805
3599.82960	0.99740
3600.79392	0.99785
3601.75825	0.99858
3602.72257	0.99814
3603.68690	0.99715
3604.65123	0.99664
3605.61555	0.99638
3606.57988	0.99630
3607.54421	0.99656
3608.50853	0.99678
3609.47286	0.99687
3610.43718	0.99695
3611.40151	0.99687
3612.36584	0.99674
3613.33016	0.99705
3614.29449	0.99760
3615.25881	0.99768
3616.22314	0.99738
3617.18747	0.99727
3618.15179	0.99726
3619.11612	0.99698
3620.08045	0.99677
3621.04477	0.99706
3622.00910	0.99774
3622.97342	0.99840
3623.93775	0.99849
3624.90208	0.99800
3625.86640	0.99737
3626.83073	0.99668
3627.79505	0.99634
3628.75938	0.99681
3629.72371	0.99759
3630.68803	0.99783
3631.65236	0.99747
3632.61669	0.99703
3633.58101	0.99670
3634.54534	0.99669
3635.50966	0.99706
3636.47399	0.99739
3637.43832	0.99746
3638.40264	0.99764
3639.36697	0.99815
3640.33129	0.99855
3641.29562	0.99849
3642.25995	0.99812
3643.22427	0.99771
3644.18860	0.99749
3645.15293	0.99748
3646.11725	0.99751
3647.08158	0.99756
3648.04590	0.99777
3649.01023	0.99815
3649.97456	0.99815
3650.93888	0.99770
3651.90321	0.99785
3652.86754	0.99885
3653.83186	0.99920
3654.79619	0.99826
3655.76051	0.99720
3656.72484	0.99682
3657.68917	0.99695
3658.65349	0.99724
3659.61782	0.99754
3660.58214	0.99770
3661.54647	0.99719
3662.51080	0.99625
3663.47512	0.99589
3664.43945	0.99610
3665.40378	0.99633
3666.36810	0.99686
3667.33243	0.99770
3668.29675	0.99807
3669.26108	0.99773
3670.22541	0.99739
3671.18973	0.99773
3672.15406	0.99853
3673.11838	0.99898
3674.08271	0.99876
3675.04704	0.99831
3676.01136	0.99805
3676.97569	0.99808
3677.94002	0.99833
3678.90434	0.99856
3679.86867	0.99847
3680.83299	0.99819
3681.79732	0.99819
3682.76165	0.99840
3683.72597	0.99842
3684.69030	0.99847
3685.65462	0.99876
3686.61895	0.99867
3687.58328	0.99790
3688.54760	0.99738
3689.51193	0.99762
3690.47626	0.99808
3691.44058	0.99806
3692.40491	0.99720
3693.36923	0.99620
3694.33356	0.99622
3695.29789	0.99709
3696.26221	0.99791
3697.22654	0.99849
3698.19087	0.99888
3699.15519	0.99874
3700.11952	0.99810
3701.08384	0.99759
3702.04817	0.99762
3703.01250	0.99795
3703.97682	0.99810
3704.94115	0.99802
3705.90547	0.99810
3706.86980	0.99837
3707.83413	0.99838
3708.79845	0.99801
3709.76278	0.99776
3710.72711	0.99810
3711.69143	0.99855
3712.65576	0.99849
3713.62008	0.99821
3714.58441	0.99811
3715.54874	0.99795
3716.51306	0.99769
3717.47739	0.99794
3718.44171	0.99861
3719.40604	0.99879
3720.37037	0.99853
3721.33469	0.99832
3722.29902	0.99794
3723.26335	0.99732
3724.22767	0.99691
3725.19200	0.99719
3726.15632	0.99815
3727.12065	0.99903
3728.08498	0.99891
3729.04930	0.99762
3730.01363	0.99634
3730.97795	0.99638
3731.94228	0.99756
3732.90661	0.99883
3733.87093	0.99944
3734.83526	0.99917
3735.79959	0.99863
3736.76391	0.99844
3737.72824	0.99828
3738.69256	0.99821
3739.65689	0.99852
3740.62122	0.99872
3741.58554	0.99872
3742.54987	0.99883
3743.51420	0.99835
3744.47852	0.99720
3745.44285	0.99667
3746.40717	0.99720
3747.37150	0.99799
3748.33583	0.99845
3749.30015	0.99842
3750.26448	0.99776
3751.22880	0.99691
3752.19313	0.99688
3753.15746	0.99772
3754.12178	0.99848
3755.08611	0.99901
3756.05044	0.99959
3757.01476	0.99990
3757.97909	0.99971
3758.94341	0.99916
3759.90774	0.99852
3760.87207	0.99831
3761.83639	0.99863
3762.80072	0.99882
3763.76504	0.99843
3764.72937	0.99773
3765.69370	0.99747
3766.65802	0.99770
3767.62235	0.99747
3768.58668	0.99657
3769.55100	0.99600
3770.51533	0.99641
3771.47965	0.99720
3772.44398	0.99737
3773.40831	0.99675
3774.37263	0.99646
3775.33696	0.99729
3776.30128	0.99848
3777.26561	0.99876
3778.22994	0.99805
3779.19426	0.99748
3780.15859	0.99748
3781.12292	0.99753
3782.08724	0.99758
3783.05157	0.99796
3784.01589	0.99834
3784.98022	0.99835
3785.94455	0.99819
3786.90887	0.99835
3787.87320	0.99869
3788.83753	0.99856
3789.80185	0.99791
3790.76618	0.99749
3791.73050	0.99778
3792.69483	0.99860
3793.65916	0.99927
3794.62348	0.99916
3795.58781	0.99843
3796.55213	0.99794
3797.51646	0.99798
3798.48079	0.99822
3799.44511	0.99843
3800.40944	0.99850
3801.37377	0.99821
3802.33809	0.99794
3803.30242	0.99821
3804.26674	0.99853
3805.23107	0.99838
3806.19540	0.99827
3807.15972	0.99874
3808.12405	0.99941
3809.08837	0.99959
3810.05270	0.99917
3811.01703	0.99857
3811.98135	0.99792
3812.94568	0.99717
3813.91001	0.99649
3814.87433	0.99605
3815.83866	0.99611
3816.80298	0.99674
3817.76731	0.99757
3818.73164	0.99826
3819.69596	0.99869
3820.66029	0.99893
3821.62462	0.99919
3822.58894	0.99960
3823.55327	0.99985
3824.51759	0.99948
3825.48192	0.99853
3826.44625	0.99775
3827.41057	0.99791
3828.37490	0.99878
3829.33922	0.99934
3830.30355	0.99924
3831.26788	0.99915
3832.23220	0.99935
3833.19653	0.99953
3834.16086	0.99974
3835.12518	0.99997
3836.08951	0.99964
3837.05383	0.99880
3838.01816	0.99834
3838.98249	0.99827
3839.94681	0.99806
3840.91114	0.99799
3841.87546	0.99829
3842.83979	0.99865
3843.80412	0.99870
3844.76844	0.99855
3845.73277	0.99855
3846.69710	0.99870
3847.66142	0.99878
3848.62575	0.99865
3849.59007	0.99831
3850.55440	0.99796
3851.51873	0.99771
3852.48305	0.99760
3853.44738	0.99785
3854.41170	0.99832
3855.37603	0.99834
3856.34036	0.99799
3857.30468	0.99781
3858.26901	0.99771
3859.23334	0.99769
3860.19766	0.99803
3861.16199	0.99841
3862.12631	0.99850
3863.09064	0.99851
3864.05497	0.99855
3865.01929	0.99852
3865.98362	0.99855
3866.94795	0.99882
3867.91227	0.99898
3868.87660	0.99851
3869.84092	0.99768
3870.80525	0.99729
3871.76958	0.99744
3872.73390	0.99752
3873.69823	0.99742
3874.66255	0.99772
3875.62688	0.99828
3876.59121	0.99825
3877.55553	0.99769
3878.51986	0.99742
3879.48419	0.99767
3880.44851	0.99844
3881.41284	0.99926
3882.37716	0.99940
3883.34149	0.99929
3884.30582	0.99944
3885.27014	0.99925
3886.23447	0.99854
3887.19879	0.99819
3888.16312	0.99858
3889.12745	0.99894
3890.09177	0.99859
3891.05610	0.99783
3892.02043	0.99750
3892.98475	0.99779
3893.94908	0.99816
3894.91340	0.99840
3895.87773	0.99873
3896.84206	0.99914
3897.80638	0.99903
3898.77071	0.99798
3899.73503	0.99696
3900.69936	0.99708
3901.66369	0.99775
3902.62801	0.99789
3903.59234	0.99748
3904.55667	0.99727
3905.52099	0.99770
3906.48532	0.99828
3907.44964	0.99830
3908.41397	0.99817
3909.37830	0.99857
3910.34262	0.99916
3911.30695	0.99963
3912.27128	0.99997
3913.23560	0.99990
3914.19993	0.99949
3915.16425	0.99901
3916.12858	0.99862
3917.09291	0.99879
3918.05723	0.99953
3919.02156	0.99986
3919.98588	0.99943
3920.95021	0.99902
3921.91454	0.99915
3922.87886	0.99926
3923.84319	0.99879
3924.80752	0.99823
3925.77184	0.99832
3926.73617	0.99890
3927.70049	0.99931
3928.66482	0.99915
3929.62915	0.99848
3930.59347	0.99786
3931.55780	0.99762
3932.52212	0.99766
3933.48645	0.99786
3934.45078	0.99806
3935.41510	0.99838
3936.37943	0.99909
3937.34376	0.99981
3938.30808	0.99997
3939.27241	0.99960
3940.23673	0.99932
3941.20106	0.99953
3942.16539	0.99957
3943.12971	0.99895
3944.09404	0.99853
3945.05836	0.99905
3946.02269	0.99983
3946.98702	0.99997
3947.95134	0.99937
3948.91567	0.99836
3949.88000	0.99759
3950.84432	0.99781
3951.80865	0.99877
3952.77297	0.99937
3953.73730	0.99931
3954.70163	0.99905
3955.66595	0.99865
3956.63028	0.99835
3957.59461	0.99862
3958.55893	0.99924
3959.52326	0.99979
3960.48758	0.99997
3961.45191	0.99936
3962.41624	0.99828
3963.38056	0.99761
3964.34489	0.99761
3965.30921	0.99795
3966.27354	0.99827
3967.23787	0.99837
3968.20219	0.99847
3969.16652	0.99881
3970.13085	0.99913
3971.09517	0.99893
3972.05950	0.99842
3973.02382	0.99820
3973.98815	0.99817
3974.95248	0.99810
3975.91680	0.99818
3976.88113	0.99842
3977.84545	0.99887
3978.80978	0.99939
3979.77411	0.99918
3980.73843	0.99816
3981.70276	0.99758
3982.66709	0.99809
3983.63141	0.99901
3984.59574	0.99943
3985.56006	0.99904
3986.52439	0.99840
3987.48872	0.99820
3988.45304	0.99839
3989.41737	0.99863
3990.38169	0.99894
3991.34602	0.99920
3992.31035	0.99913
3993.27467	0.99909
3994.23900	0.99949
3995.20333	0.99993
3996.16765	0.99997
3997.13198	1.00000
3998.09630	0.99997
