1.54058,,
3,0,4.4
3.03,20,4.4
3.06,15,4.4
3.09,16,4.4
3.12,27,4.4
3.15,27,4.4
3.18,7,4.4
3.21,30,4.4
3.24,0,4.4
3.27,32,4.4
3.3,19,4.4
3.33,19,4.4
3.36,9,4.4
3.39,12,4.4
3.42,29,4.4
3.45,15,4.4
3.48,26,4.4
3.51,27,4.4
3.54,2,4.4
3.57,14,4.4
3.6,8,4.4
3.63,27,4.4
3.66,9,4.4
3.69,12,4.4
3.72,17,4.4
3.75,20,4.4
3.78,26,4.4
3.81,23,4.4
3.84,17,4.4
3.87,23,4.4
3.9,23,4.4
3.93,14,4.4
3.96,4,4.4
3.99,1,4.4
4.02,28,4.4
4.05,29,4.4
4.08,22,4.4
4.11,5,4.4
4.14,27,4.4
4.17,0,4.4
4.2,7,4.4
4.23,7,4.4
4.26,19,4.4
4.29,8,4.4
4.32,30,4.4
4.35,27,4.4
4.38,27,4.4
4.41,28,4.4
4.44,18,4.4
4.47,28,4.4
4.5,9,4.4
4.53,32,4.4
4.56,17,4.4
4.59,4,4.4
4.62,31,4.4
4.65,1,4.4
4.68,9,4.4
4.71,11,4.4
4.74,11,4.4
4.77,22,4.4
4.8,0,4.4
4.83,13,4.4
4.86,1,4.4
4.89,29,4.4
4.92,13,4.4
4.95,11,4.4
4.98,10,4.4
5.01,12,4.4
5.04,7,4.4
5.07,13,4.4
5.1,26,4.4
5.13,31,4.4
5.16,24,4.4
5.19,17,4.4
5.22,7,4.4
5.25,17,4.4
5.28,30,4.4
5.31,13,4.4
5.34,26,4.4
5.37,1,4.4
5.4,16,4.4
5.43,11,4.4
5.46,23,4.4
5.49,15,4.4
5.52,9,4.4
5.55,20,4.4
5.58,14,4.4
5.61,2,4.4
5.64,20,4.4
5.67,2,4.4
5.7,14,4.4
5.73,8,4.4
5.76,18,4.4
5.79,30,4.4
5.82,28,4.4
5.85,10,4.4
5.88,17,4.4
5.91,32,4.4
5.94,16,4.4
5.97,9,4.4
6,29,4.4
6.03,17,4.4
6.06,15,4.4
6.09,22,4.4
6.12,0,4.4
6.15,26,4.4
6.18,26,4.4
6.21,2,4.4
6.24,9,4.4
6.27,27,4.4
6.3,16,4.4
6.33,4,4.4
6.36,3,4.4
6.39,23,4.4
6.42,3,4.4
6.45,10.665121,4.4
6.48,22.845284,4.4
6.51,22.1099,4.4
6.54,16.52133,4.4
6.57,6.21213,4.4
6.6,31.50652,4.4
6.63,33.3813,4.4
6.66,32.0087,4.4
6.69,95.9805,8.18416
6.72,739569,27.1946
6.75,69.3686,6.11299
6.78,13.0789,4.4
6.81,6.20405,4.4
6.84,17.00797,4.4
6.87,33.95642,4.4
6.9,28.37321,4.4
6.93,32.01657,4.4
6.96,12.782737,4.4
6.99,2.621181,4.4
7.02,6,4.4
7.05,21,4.4
7.08,24,4.4
7.11,5,4.4
7.14,8,4.4
7.17,6,4.4
7.2,21,4.4
7.23,29,4.4
7.26,12,4.4
7.29,2,4.4
7.32,4,4.4
7.35,28,4.4
7.38,12,4.4
7.41,10,4.4
7.44,13,4.4
7.47,25,4.4
7.5,12,4.4
7.53,25,4.4
7.56,22,4.4
7.59,13,4.4
7.62,28,4.4
7.65,19,4.4
7.68,18,4.4
7.71,2,4.4
7.74,13,4.4
7.77,11,4.4
7.8,11,4.4
7.83,5,4.4
7.86,12,4.4
7.89,1,4.4
7.92,23,4.4
7.95,18,4.4
7.98,14,4.4
8.01,20,4.4
8.04,6,4.4
8.07,23,4.4
8.1,16,4.4
8.13,30,4.4
8.16,21,4.4
8.19,7,4.4
8.22,21,4.4
8.25,5,4.4
8.28,8,4.4
8.31,11.262118,4.4
8.34,10.297131,4.4
8.37,5.339658,4.4
8.4,31.392013,4.4
8.43,18.457474,4.4
8.46,11.540811,4.4
8.49,9.649175,4.4
8.52,25.793689,4.4
8.55,12.992415,4.4
8.58,1.27628,4.4
8.61,13.70186,4.4
8.64,7.38188,4.4
8.67,19.5681,4.4
8.7,23.9218,4.4
8.73,24.6748,4.4
8.76,43.6563,5.71457
8.79,289885,17.0255
8.82,225.77,14.3098
8.85,57.8946,5.37537
8.88,26.8344,4.4
8.91,13.61263,4.4
8.94,23.42207,4.4
8.97,8.30174,4.4
9,6.65326,4.4
9.03,31.24462,4.4
9.06,11.970654,4.4
9.09,8.778096,4.4
9.12,1.637624,4.4
9.15,0.532017,4.4
9.18,17.450626,4.4
9.21,25.44986,4.4
9.24,19.7442,4.4
9.27,27.1992,4.81655
9.3,45.7634,5.54647
9.33,71.6472,6.53048
9.36,70.8745,7.99215
9.39,106323,10.3105
9.42,212485,14.5766
9.45,635651,25.2119
9.48,9863.31,99.2487
9.51,10011,100
9.54,842101,29.0188
9.57,241635,15.5439
9.6,115578,10.7503
9.63,79.9999,8.24621
9.66,54.8656,6.69818
9.69,47.8568,5.64418
9.72,42.8145,4.88001
9.75,21.5001,4.4
9.78,37.09344,4.4
9.81,18.177182,4.4
9.84,19.249202,4.4
9.87,12.37598,4.4
9.9,17.631063,4.4
9.93,12.26976,4.4
9.96,30.72466,4.4
9.99,51.9135,6.47406
10.02,36.8212,4.4
10.05,17.63626,4.4
10.08,26.0285,4.4
10.11,20.542516,4.4
10.14,12.334197,4.4
10.17,19.226283,4.4
10.2,3.163286,4.4
10.23,18.123346,4.4
10.26,29.0964482,4.4
10.29,23.0774756,4.4
10.32,3.0635958,4.4
10.35,30.0531368,4.4
10.38,27.0450604,4.4
10.41,11.0386945,4.4
10.44,16,4.4
10.47,22,4.4
10.5,11,4.4
10.53,6,4.4
10.56,16,4.4
10.59,1,4.4
10.62,30,4.4
10.65,8,4.4
10.68,30,4.4
10.71,0,4.4
10.74,22,4.4
10.77,12,4.4
10.8,0,4.4
10.83,2,4.4
10.86,8,4.4
10.89,3,4.4
10.92,8,4.4
10.95,12,4.4
10.98,6,4.4
11.01,7,4.4
11.04,13,4.4
11.07,7,4.4
11.1,29,4.4
11.13,30,4.4
11.16,32,4.4
11.19,15,4.4
11.22,8,4.4
11.25,26,4.4
11.28,32,4.4
11.31,17,4.4
11.34,22,4.4
11.37,17,4.4
11.4,31,4.4
11.43,19,4.4
11.46,21,4.4
11.49,13,4.4
11.52,32,4.4
11.55,3,4.4
11.58,18,4.4
11.61,8,4.4
11.64,29,4.4
11.67,3,4.4
11.7,12,4.4
11.73,21,4.4
11.76,7,4.4
11.79,15,4.4
11.82,23.59484,4.4
11.85,16.68599,4.4
11.88,31.36095,4.4
11.91,34.12419,4.4
11.94,21.1703,4.4
11.97,44.9227,4.99226
12,67.7649,7.40033
12.03,200910,14.1737
12.06,4396.53,66.0646
12.09,258.41,15.5052
12.12,66.1522,7.75579
12.15,42.5456,5.15225
12.18,19.8589,4.4
12.21,12.47775,4.4
12.24,15.56585,4.4
12.27,34.81514,4.4
12.3,14.68141,4.4
12.33,3,4.4
12.36,28,4.4
12.39,9,4.4
12.42,2,4.4
12.45,24,4.4
12.48,24,4.4
12.51,8.163733,4.4
12.54,0.188713,4.4
12.57,22.219878,4.4
12.6,0.25945,4.4
12.63,20.31075,4.4
12.66,15.378913,4.4
12.69,24.472227,4.4
12.72,5.05208,4.4
12.75,13.38432,4.4
12.78,31.90317,4.4
12.81,20.78017,4.4
12.84,16.44178,4.4
12.87,33.2113,4.4
12.9,46.1285,4.48647
12.93,111756,10.5705
12.96,675068,25.9819
12.99,64.6636,7.04724
13.02,21.7953,4.4
13.05,7.40333,4.4
13.08,29.68928,4.4
13.11,15.39732,4.4
13.14,26.68239,4.4
13.17,31.24558,4.4
13.2,4.993656,4.4
13.23,25.437875,4.4
13.26,8.382126,4.4
13.29,24.354873,4.4
13.32,14.362086,4.4
13.35,0.433344,4.4
13.38,20.696558,4.4
13.41,29.10795,4.4
13.44,73.2848,6.50268
13.47,24.23625,4.4
13.5,25.56639,4.4
13.53,12.251024,4.4
13.56,29.140814,4.4
13.59,6.089934,4.4
13.62,11.0623569,4.4
13.65,0.0457583,4.4
13.68,8.0350006,4.4
13.71,9,4.4
13.74,7,4.4
13.77,15,4.4
13.8,2,4.4
13.83,14,4.4
13.86,21,4.4
13.89,10,4.4
13.92,27,4.4
13.95,27,4.4
13.98,26,4.4
14.01,12,4.4
14.04,8,4.4
14.07,22,4.4
14.1,21,4.4
14.13,1,4.4
14.16,9,4.4
14.19,15,4.4
14.22,27,4.4
14.25,24,4.4
14.28,3,4.4
14.31,13,4.4
14.34,8,4.4
14.37,9,4.4
14.4,23,4.4
14.43,10,4.4
14.46,26,4.4
14.49,18.887392,4.4
14.52,31.07788,4.4
14.55,7.32165,4.4
14.58,25.65866,4.4
14.61,22.14337,4.4
14.64,27.89056,4.4
14.67,33.07929,4.4
14.7,32.18945,4.4
14.73,20.4937,4.4
14.76,43.5447,4.64163
14.79,89.5451,8.15752
14.82,963798,31.0449
14.85,195558,13.9832
14.88,37581,6.13009
14.91,44.4675,4.4
14.94,22.7388,4.4
14.97,11.59114,4.4
15,41.3122,4.4
15.03,21.2519,4.4
15.06,37.3306,4.4
15.09,31.25536,4.4
15.12,30.92647,4.4
15.15,9.43111,4.4
15.18,22.17588,4.4
15.21,8.347249,4.4
15.24,16.423633,4.4
15.27,21.659599,4.4
15.3,26.5109,4.4
15.33,19.65182,4.4
15.36,78.1247,7.55809
15.39,11.4828,4.4
15.42,20.46744,4.4
15.45,32.2347,4.4
15.48,1.60733,4.4
15.51,29.03566,4.4
15.54,10154,4.4
15.57,204213,14.2894
15.6,33.5306,4.4
15.63,14.64943,4.4
15.66,1585,4.4
15.69,10.879204,4.4
15.72,23.571989,4.4
15.75,2.410733,4.4
15.78,29.318611,4.4
15.81,1.264622,4.4
15.84,3.148525,4.4
15.87,31.154273,4.4
15.9,23.12328,4.4
15.93,11.172553,4.4
15.96,19.258515,4.4
15.99,26.429117,4.4
16.02,28.855277,4.4
16.05,4.38025,4.4
16.08,36.1139,4.59499
16.11,36.7813,4.4
16.14,17.1188,4.4
16.17,15.831398,4.4
16.2,25.493093,4.4
16.23,32.453147,4.4
16.26,17.09627,4.4
16.29,38.69352,4.4
16.32,17.58538,4.4
16.35,7.224871,4.4
16.38,23.149753,4.4
16.41,7.114282,4.4
16.44,19.0977847,4.4
16.47,27.0909643,4.4
16.5,10.0908675,4.4
16.53,26.0970666,4.4
16.56,8.110949,4.4
16.59,3.129574,4.4
16.62,13.160052,4.4
16.65,1.252046,4.4
16.68,18.458255,4.4
16.71,13.12139,4.4
16.74,34.9555,4.4
16.77,43.4225,4.4
16.8,24.90532,4.4
16.83,9.22607,4.4
16.86,25.499224,4.4
16.89,5.270651,4.4
16.92,6.169878,4.4
16.95,21.116591,4.4
16.98,8.084996,4.4
17.01,29.0647201,4.4
17.04,20.0509309,4.4
17.07,7.0411269,4.4
17.1,3.0339066,4.4
17.13,32.0284352,4.4
17.16,10.018015,4.4
17.19,19.0154682,4.4
17.22,4,4.4
17.25,5.0682281,4.4
17.28,1.0804066,4.4
17.31,26.0961618,4.4
17.34,32.653896,4.4
17.37,25.821434,4.4
17.4,6.06271,4.4
17.43,22.42833,4.4
17.46,27.02115,4.4
17.49,18.07743,4.4
17.52,10.2449,4.4
17.55,35.8769,4.4
17.58,35.6452,5.88602
17.61,591256,24.3153
17.64,140798,11.8657
17.67,19.5995,4.42713
17.7,31.69634,4.4
17.73,27.09359,4.4
17.76,13.53728,4.4
17.79,22.72574,4.4
17.82,25.24952,4.4
17.85,27.94865,4.4
17.88,21.744205,4.4
17.91,6.62067,4.4
17.94,17.131639,4.4
17.97,16.120513,4.4
18,32.115728,4.4
18.03,13.0555714,4.4
18.06,18.0735122,4.4
18.09,19.101781,4.4
18.12,31.150142,4.4
18.15,2.243357,4.4
18.18,8.460538,4.4
18.21,16.18115,4.4
18.24,11.9127,4.4
18.27,54.4446,4.84196
18.3,23.95809,4.4
18.33,20.803544,4.4
18.36,16.545475,4.4
18.39,18.482764,4.4
18.42,29.516348,4.4
18.45,9.595704,4.4
18.48,29.742359,4.4
18.51,19.992887,4.4
18.54,19.4369,4.4
18.57,18.30863,4.4
18.6,36.84017,4.4
18.63,24.8252,4.4
18.66,101.6382,8.5228
18.69,158458,12.5872
18.72,21.7188,4.4
18.75,31.47382,4.4
18.78,30.48653,4.4
18.81,4072,4.4
18.84,17.48794,4.4
18.87,32.8723,4.4
18.9,25.01089,4.4
18.93,35.0365,4.4
18.96,77.6256,6.90113
18.99,530965,23.0425
19.02,196282,14.0094
19.05,374.67,19.3564
19.08,48.1963,6.94236
19.11,40.3146,4.4
19.14,16.20926,4.4
19.17,19.45366,4.4
19.2,16.04787,4.4
19.23,34.22471,4.4
19.26,6.69839,4.4
19.29,11.34044,4.4
19.32,20.08553,4.4
19.35,24.622133,4.4
19.38,27.527683,4.4
19.41,5.453213,4.4
19.44,5,4.4
19.47,32,4.4
19.5,8,4.4
19.53,4,4.4
19.56,19,4.4
19.59,23,4.4
19.62,21,4.4
19.65,31,4.4
19.68,22,4.4
19.71,10,4.4
19.74,31,4.4
19.77,19.00188307,4.4
19.8,20.00239153,4.4
19.83,1.0031375,4.4
19.86,7.00429556,4.4
19.89,0.00623588,4.4
19.92,13.00986033,4.4
19.95,9.102552,4.4
19.98,17.152591,4.4
20.01,20.332772,4.4
20.04,24.49733,4.4
20.07,4.455792,4.4
20.1,4.65303,4.4
20.13,11.44057,4.4
20.16,10.92917,4.4
20.19,120.3179,9.66012
20.22,25.54095,4.4
20.25,8.86817,4.4
20.28,4.83519,4.4
20.31,22.6302,4.4
20.34,29.6025,4.4
20.37,17.96543,4.4
20.4,42.8993,4.78532
20.43,100274,10.0129
20.46,1151.21,33.5441
20.49,66.7806,7.60136
20.52,43.5135,4.41741
20.55,20.2799,4.4
20.58,186786,13666
20.61,114861,10.7158
20.64,11.60952,4.4
20.67,8.9784,4.4
20.7,26.43561,4.4
20.73,20.73408,4.4
20.76,18.697505,4.4
20.79,5.638985,4.4
20.82,29.677555,4.4
20.85,21.727687,4.4
20.88,26.14034,4.4
20.91,11.66148,4.4
20.94,34.4538,4.4
20.97,50.9867,4.89763
21,122571,11.0708
21.03,13.84481,4.4
21.06,10.48454,4.4
21.09,8.4605,4.4
21.12,10.90599,4.4
21.15,22.9851,4.4
21.18,19.24284,4.4
21.21,23.22079,4.4
21.24,7.37643,4.4
21.27,61.5754,6.04776
21.3,44.9197,6.55131
21.33,26.46424,4.4
21.36,25.962514,4.4
21.39,13.47657,4.4
21.42,9.307255,4.4
21.45,1.250041,4.4
21.48,21.340821,4.4
21.51,21.30924,4.4
21.54,4.476385,4.4
21.57,15.0952587,4.4
21.6,9.0401693,4.4
21.63,25.0219844,4.4
21.66,27.0138362,4.4
21.69,20.00950057,4.4
21.72,11.00692354,4.4
21.75,30.00526848,4.4
21.78,2.00414291,4.4
21.81,11,4.4
21.84,29,4.4
21.87,6,4.4
21.9,26,4.4
21.93,19,4.4
21.96,22,4.4
21.99,8,4.4
22.02,24,4.4
22.05,3,4.4
22.08,1,4.4
22.11,1,4.4
22.14,26,4.4
22.17,26,4.4
22.2,1,4.4
22.23,10.0000846674,4.4
22.26,3.0682433,4.4
22.29,2.278068,4.4
22.32,4.356144,4.4
22.35,17.473559,4.4
22.38,13.662626,4.4
22.41,31.997861,4.4
22.44,6.68589,4.4
22.47,8.54407,4.4
22.5,26.7828,4.4
22.53,234420,15.3099
22.56,77.8534,8.41745
22.59,32.8682,4.4
22.62,10.64762,4.4
22.65,10.51285,4.4
22.68,27.44034,4.4
22.71,57.21,7.01498
22.74,33.89937,4.4
22.77,47.2557,4.4
22.8,35.2386,4.4
22.83,31.42898,4.4
22.86,18.970951,4.4
22.89,29.489748,4.4
22.92,2.306987,4.4
22.95,31.211229,4.4
22.98,31.121524,4.4
23.01,7.0913685,4.4
23.04,7.0756528,4.4
23.07,2.0628639,4.4
23.1,23.0546674,4.4
23.13,28.0504517,4.4
23.16,31.0510231,4.4
23.19,7.0604789,4.4
23.22,0.0977211,4.4
23.25,30.315772,4.4
23.28,27.26411,4.4
23.31,31.257792,4.4
23.34,25.0659984,4.4
23.37,15.0300855,4.4
23.4,30.0171204,4.4
23.43,3.0110296,4.4
23.46,30.00769202,4.4
23.49,3.005668,4.4
23.52,29.00434901,4.4
23.55,5,4.4
23.58,11,4.4
23.61,9,4.4
23.64,4,4.4
23.67,11,4.4
23.7,13,4.4
23.73,0.127346,4.4
23.76,15.148238,4.4
23.79,28.17473,4.4
23.82,12.209017,4.4
23.85,0.254486,4.4
23.88,30.316588,4.4
23.91,32.404549,4.4
23.94,21.597529,4.4
23.97,30.960074,4.4
24,5.3755,4.4
24.03,12.15003,4.4
24.06,11.88459,4.4
24.09,33.35291,4.4
24.12,68.4059,7.16979
24.15,149668,12.2328
24.18,104.1082,9.00601
24.21,26.0758,4.4
24.24,170099,13.0417
24.27,43.7715,4.4
24.3,35.83675,4.4
24.33,27.13459,4.4
24.36,19.85144,4.4
24.39,27.25712,4.4
24.42,18.0124,4.4
24.45,27.863956,4.4
24.48,28.879476,4.4
24.51,2.995518,4.4
24.54,2.17069,4.4
24.57,11.85385,4.4
24.6,25.59978,4.4
24.63,33.3104,4.4
24.66,47.6643,6.0551
24.69,59.3926,7.23827
24.72,89415,9.45505
24.75,12.20762,4.4
24.78,29.92083,4.4
24.81,20.76066,4.4
24.84,8.75304,4.4
24.87,18.72395,4.4
24.9,16.09538,4.4
24.93,43.0068,5.1968
24.96,402684,20.0663
24.99,129894,11.3966
25.02,20.0024,4.4
25.05,16.45869,4.4
25.08,60.2116,5.67552
25.11,30.27724,4.4
25.14,4.24425,4.4
25.17,16.20916,4.4
25.2,19.829054,4.4
25.23,32.381732,4.4
25.26,14.342633,4.4
25.29,19.307833,4.4
25.32,29.559715,4.4
25.35,23.16521,4.4
25.38,36.1107,4.7022
25.41,8.66744,4.4
25.44,12.0048,4.4
25.47,18.51252,4.4
25.5,17.191524,4.4
25.53,1.105592,4.4
25.56,7.0685282,4.4
25.59,4.0637841,4.4
25.62,18.054228,4.4
25.65,21.0490564,4.4
25.68,12.0317904,4.4
25.71,31.0295323,4.4
25.74,21.0354903,4.4
25.77,24.0434669,4.4
25.8,11.0545033,4.4
25.83,24.0704301,4.4
25.86,22.09476,4.4
25.89,6.135207,4.4
25.92,21.213762,4.4
25.95,4.47103,4.4
25.98,1.15604,4.4
26.01,19.94394,4.4
26.04,19.76213,4.4
26.07,40.2809,4.4
26.1,6.80342,4.4
26.13,4.639931,4.4
26.16,4.326453,4.4
26.19,25.199679,4.4
26.22,26.136844,4.4
26.25,27.102017,4.4
26.28,18.0818155,4.4
26.31,15.0706871,4.4
26.34,6.0671947,4.4
26.37,24.0712029,4.4
26.4,17.0883196,4.4
26.43,32.140182,4.4
26.46,0.397152,4.4
26.49,2.80078,4.4
26.52,26.2954,4.4
26.55,20.44336,4.4
26.58,21.346255,4.4
26.61,10.478089,4.4
26.64,3.992946,4.4
26.67,25.97094,4.4
26.7,88.7174,7.85604
26.73,26.15048,4.4
26.76,33.4873,4.4
26.79,2.58651,4.4
26.82,24.482677,4.4
26.85,18.594198,4.4
26.88,19.21363,4.4
26.91,16.9768,4.4
26.94,29.0211,4.4
26.97,59.0108,6.85644
27,11.56701,4.4
27.03,25.803941,4.4
27.06,26.39159,4.4
27.09,26.232125,4.4
27.12,16.153801,4.4
27.15,27.109496,4.4
27.18,10.0740012,4.4
27.21,23.0572164,4.4
27.24,7.0455608,4.4
27.27,9.00460785,4.4
27.3,17,4.4
27.33,17,4.4
27.36,4,4.4
27.39,4,4.4
27.42,29.00139241,4.4
27.45,1.00162648,4.4
27.48,19.00192495,4.4
27.51,16.00231376,4.4
27.54,24.0654504,4.4
27.57,18.100381,4.4
27.6,3.186166,4.4
27.63,6.246911,4.4
27.66,3.350297,4.4
27.69,1.554903,4.4
27.72,28.07983,4.4
27.75,4.40698,4.4
27.78,67666,8.22545
27.81,38.60701,4.4
27.84,9.19723,4.4
27.87,14.38802,4.4
27.9,21.73006,4.4
27.93,17.52016,4.4
27.96,25.4104,4.4
27.99,73.5179,7.90682
28.02,25.52075,4.4
28.05,35.51124,4.4
28.08,66.2441,6.72637
28.11,31.2595,5.22106
28.14,31.13854,4.4
28.17,28.2581,4.92525
28.2,18.22278,4.4
28.23,7.10795,4.4
28.26,8.806861,4.4
28.29,2.704082,4.4
28.32,23.694551,4.4
28.35,17.2217,4.4
28.38,25.41573,4.4
28.41,26.82041,4.4
28.44,14.56954,4.4
28.47,6.71579,4.4
28.5,7.03474,4.4
28.53,40.0368,4.4
28.56,116452,10.7905
28.59,102696,10.1328
28.62,61.2109,6.5735
28.65,504885,22.4691
28.68,82.4377,8.85651
28.71,18.9311,4.4
28.74,38.55894,4.4
28.77,19.50659,4.4
28.8,17.57584,4.4
28.83,18.19956,4.4
28.86,18.47688,4.4
28.89,22.1181,4.4
28.92,5.884844,4.4
28.95,12.720493,4.4
28.98,6.59955,4.4
29.01,17.154989,4.4
29.04,27.134233,4.4
29.07,17.120695,4.4
29.1,19.0132566,4.4
29.13,25.0158016,4.4
29.16,2.0184244,4.4
29.19,23.0245039,4.4
29.22,7.0344594,4.4
29.25,28.0512531,4.4
29.28,25.0842151,4.4
29.31,16.193574,4.4
29.34,31.476106,4.4
29.37,21.40209,4.4
29.4,18.84955,4.4
29.43,20.58649,4.4
29.46,28.321325,4.4
29.49,17.278844,4.4
29.52,24.303215,4.4
29.55,2.378843,4.4
29.58,15.536632,4.4
29.61,9.929093,4.4
29.64,25.46073,4.4
29.67,40.6309,5.88481
29.7,31.61749,4.4
29.73,22.1714,4.70865
29.76,69.2096,6.72381
29.79,49.2493,4.71692
29.82,24.87064,4.4
29.85,7.97216,4.4
29.88,23.21965,4.4
29.91,25.7583,4.4
29.94,41.74015,4.4
29.97,30.76319,4.4
30,12.54295,4.4
30.03,0.725658,4.4
30.06,26.542923,4.4
30.09,16.676635,4.4
30.12,7.76427,4.4
30.15,28.9958,4.47166
30.18,19.98736,4.4
30.21,47.0833,5.75181
30.24,25.97107,4.4
30.27,2.733713,4.4
30.3,22.341291,4.4
30.33,20.202406,4.4
30.36,21.136699,4.4
30.39,19.100489,4.4
30.42,4.0753028,4.4
30.45,19.0564732,4.4
30.48,8.0631538,4.4
30.51,12.130841,4.4
30.54,11.583372,4.4
30.57,15.0606648,4.4
30.6,24.0426554,4.4
30.63,16.0438823,4.4
30.66,2.0536395,4.4
30.69,2.0825535,4.4
30.72,15.112238,4.4
30.75,1.166062,4.4
30.78,13.283347,4.4
30.81,7.710791,4.4
30.84,33.99067,4.4
30.87,23.3772,4.4
30.9,11.54933,4.4
30.93,31.48761,4.4
30.96,29.619713,4.4
30.99,32.596243,4.4
31.02,28.30606,4.4
31.05,44.7039,4.4
31.08,31.99291,4.4
31.11,24.53967,4.4
31.14,5.73375,4.4
31.17,8.445699,4.4
31.2,25.356902,4.4
31.23,12.466996,4.4
31.26,13.15683,4.4
31.29,29.48246,4.4
31.32,32.701155,4.4
31.35,10.913375,4.4
31.38,3.68596,4.4
31.41,5.62913,4.4
31.44,65.6908,6.68512
31.47,47.0601,5.39074
31.5,22.21385,4.4
31.53,16.94158,4.4
31.56,14.1574,4.4
31.59,11.95247,4.4
31.62,3.43222,4.4
31.65,24.42021,4.4
31.68,14.692864,4.4
31.71,24.309511,4.4
31.74,19.19502,4.4
31.77,31.140744,4.4
31.8,1.109246,4.4
31.83,15.0881597,4.4
31.86,12.0619319,4.4
31.89,21.0525306,4.4
31.92,21.00105279,4.4
31.95,32.512139,4.4
31.98,9.62263,4.4
32.01,0.773848,4.4
32.04,22.988258,4.4
32.07,24.30905,4.4
32.1,3.81992,4.4
32.13,13.71146,4.4
32.16,27.51343,4.4
32.19,29.04754,4.4
32.22,27634,5.25423
32.25,448144,21.1687
32.28,84.4038,8.20998
32.31,68.0329,7.14373
32.34,148.35,12.1388
32.37,26.9283,4.4
32.4,25.5135,4.4
32.43,22.11543,4.4
32.46,16.08477,4.4
32.49,10.59148,4.4
32.52,7.3263,4.4
32.55,33.24221,4.4
32.58,30.05082,4.4
32.61,12.67961,4.4
32.64,12.26688,4.4
32.67,19.6897,4.43731
32.7,51.9051,5.55923
32.73,67.9862,7.27917
32.76,10.87278,4.4
32.79,30.64638,4.4
32.82,7.926632,4.4
32.85,18.833579,4.4
32.88,1.07506,4.4
32.91,6.58478,4.4
32.94,23.2241,4.4
32.97,4.979419,4.4
33,23.30473,4.4
33.03,44.7879,6.0653
33.06,17.19296,4.4
33.09,29115,5.39435
33.12,33.15469,4.4
33.15,17.788744,4.4
33.18,23.427023,4.4
33.21,28.263928,4.4
33.24,26.192264,4.4
33.27,18.146682,4.4
33.3,2.151521,4.4
33.33,30.144514,4.4
33.36,32.242349,4.4
33.39,15.864009,4.4
33.42,16.35135,4.4
33.45,8.980316,4.4
33.48,2.414887,4.4
33.51,13.397621,4.4
33.54,1.508218,4.4
33.57,25.785589,4.4
33.6,10.52577,4.4
33.63,9.81198,4.4
33.66,126.0875,9.69987
33.69,8708,4.4
33.72,48.0964,6.33217
33.75,51.8947,4.78485
33.78,8940,4.4
33.81,9.83509,4.4
33.84,17.874109,4.4
33.87,29.581177,4.4
33.9,29.488742,4.4
33.93,26.442958,4.4
33.96,27.640394,4.4
33.99,31.44911,4.4
34.02,47.8545,4.4
34.05,19.1008,4.4
34.08,10276,4.4
34.11,63.8978,6.15612
34.14,15.71258,4.4
34.17,30.00155,4.4
34.2,19.750367,4.4
34.23,26.896316,4.4
34.26,17.62503,4.4
34.29,17.61453,4.4
34.32,112937,10.6259
34.35,18.75957,4.4
34.38,27.82751,4.4
34.41,12.84681,4.4
34.44,12.1394,4.4
34.47,8.67175,4.4
34.5,11.21581,4.4
34.53,12.98364,4.4
34.56,49.0865,4.9078
34.59,2.84956,4.4
34.62,24.8684,4.4
34.65,31.26344,4.4
34.68,15.338321,4.4
34.71,20.141872,4.4
34.74,19.0831173,4.4
34.77,2.059017,4.4
34.8,19.0447137,4.4
34.83,15.074841,4.4
34.86,24.0868969,4.4
34.89,0.110732,4.4
34.92,28.14459,4.4
34.95,10.201306,4.4
34.98,18.305381,4.4
35.01,4.565288,4.4
35.04,9.30421,4.4
35.07,29.67711,4.4
35.1,78.0783,8.06711
35.13,14.32354,4.4
35.16,8.09347,4.4
35.19,1.724173,4.4
35.22,17.12234,4.4
35.25,16.2167,4.4
35.28,7.21183,4.4
35.31,27.82248,4.4
35.34,5.75617,4.4
35.37,25.516311,4.4
35.4,13.4111,4.4
35.43,27.52216,4.4
35.46,32.524856,4.4
35.49,27.274546,4.4
35.52,23.433951,4.4
35.55,20.83762,4.4
35.58,16.0367,4.4
35.61,32.22261,4.4
35.64,43.5142,4.63834
35.67,11.42628,4.4
35.7,5.991736,4.4
35.73,22.47427,4.4
35.76,33.22909,4.4
35.79,28.07826,4.4
35.82,32.327599,4.4
35.85,0.169565,4.4
35.88,2.107156,4.4
35.91,15.0587454,4.4
35.94,20.0447576,4.4
35.97,16.0383789,4.4
36,11.0416831,4.4
36.03,18.0592716,4.4
36.06,13.212525,4.4
36.09,16.53571,4.4
36.12,26.14584,4.4
36.15,13.116243,4.4
36.18,30.117254,4.4
36.21,11.144539,4.4
36.24,6.175301,4.4
36.27,32.223459,4.4
36.3,21.335437,4.4
36.33,8.585393,4.4
36.36,8.73923,4.4
36.39,57.1496,5.49087
36.42,7.02248,4.4
36.45,12.08871,4.4
36.48,29.20607,4.4
36.51,24.47008,4.4
36.54,32.37528,4.4
36.57,9.01542,4.4
36.6,53.8228,6.84272
36.63,43.2279,6.4983
36.66,33.7532,4.4
36.69,42.9569,5192
36.72,22.6684,4.4
36.75,27.4697,4.4
36.78,23.09573,4.4
36.81,27.666734,4.4
36.84,21.460311,4.4
36.87,7.344682,4.4
36.9,18.278721,4.4
36.93,16.324926,4.4
36.96,3.269745,4.4
36.99,4.49878,4.4
37.02,6.63137,4.4
37.05,1.385056,4.4
37.08,2.208388,4.4
37.11,2.196952,4.4
37.14,25.439684,4.4
37.17,10.869541,4.4
37.2,0.956863,4.4
37.23,19.3911,4.4
37.26,23.923092,4.4
37.29,16.244394,4.4
37.32,22.113102,4.4
37.35,10.0728506,4.4
37.38,0.0561779,4.4
37.41,1.0495721,4.4
37.44,0.0525492,4.4
37.47,12.0637909,4.4
37.5,29.0820108,4.4
37.53,25.173592,4.4
37.56,4.720248,4.4
37.59,4.89753,4.4
37.62,19.97613,4.4
37.65,4.58968,4.4
37.68,30.506605,4.4
37.71,18.135219,4.4
37.74,3.11198,4.4
37.77,7.132677,4.4
37.8,4.24106,4.4
37.83,21.615626,4.4
37.86,27.68372,4.4
37.89,26.53073,4.4
37.92,13.964732,4.4
37.95,9.0453,4.4
37.98,17.79171,4.4
38.01,11.43935,4.4
38.04,16.341562,4.4
38.07,3.409591,4.4
38.1,20.814648,4.4
38.13,19.94613,4.4
38.16,20.37367,4.4
38.19,5.13897,4.4
38.22,34.9392,4.4
38.25,54.1623,5.75867
38.28,18.0851,4.4
38.31,17.94906,4.4
38.34,32.0092,5.19704
38.37,8.36326,4.4
38.4,16.66702,4.4
38.43,6.772569,4.4
38.46,24.515688,4.4
38.49,10.501972,4.4
38.52,4.06979,4.4
38.55,16020,4.4
38.58,22.3276,4.4
38.61,16.00403,4.4
38.64,14.251111,4.4
38.67,24.154164,4.4
38.7,32.101736,4.4
38.73,2.093445,4.4
38.76,7.147664,4.4
38.79,0.240435,4.4
38.82,25.787137,4.4
38.85,13.96431,4.4
38.88,0.494266,4.4
38.91,2.331035,4.4
38.94,28.384064,4.4
38.97,21.563353,4.4
39,18.00362,4.4
39.03,13.38852,4.4
39.06,12.7131,4.4
39.09,101.4183,8.62661
39.12,17.17113,4.4
39.15,30.55217,4.4
39.18,12.21028,4.4
39.21,29.80752,4.4
39.24,4.59199,4.4
39.27,9442,4.4
39.3,69.4343,6.66591
39.33,31.81835,4.4
39.36,58.4659,5.33535
39.39,18.50905,4.4
39.42,23.19083,4.4
39.45,33.3837,4.4
39.48,9.40527,4.4
39.51,13.28466,4.4
39.54,9.42984,4.4
39.57,17.608539,4.4
39.6,30.560032,4.4
39.63,1.721029,4.4
39.66,9.22236,4.4
39.69,20.00554,4.4
39.72,19333,4.4
39.75,54.4175,6.03469
39.78,31.70714,4.4
39.81,15.30616,4.4
39.84,28.663099,4.4
39.87,28.403008,4.4
39.9,22.27362,4.4
39.93,16.195857,4.4
39.96,22.155624,4.4
39.99,13.141875,4.4
40.02,21.249065,4.4
40.05,11.404005,4.4
40.08,22.14389,4.4
40.11,25.200171,4.4
40.14,5.939788,4.4
40.17,4.46474,4.4
40.2,27.270059,4.4
40.23,7.319936,4.4
40.26,32.08241,4.4
40.29,30.10484,4.4
40.32,6.04517,4.4
40.35,23.08029,4.4
40.38,32.0479,4.4
40.41,11.84275,4.4
40.44,15.310602,4.4
40.47,14.252626,4.4
40.5,21.31369,4.4
40.53,5.553617,4.4
40.56,31.73514,4.4
40.59,36.6974,5.80495
40.62,16.70371,4.4
40.65,18.35777,4.4
40.68,16.11789,4.4
40.71,26.01657,4.4
40.74,18.396183,4.4
40.77,4.216792,4.4
40.8,6.13795,4.4
40.83,23.096958,4.4
40.86,28.12156,4.4
40.89,19.141095,4.4
40.92,9.203612,4.4
40.95,25.257488,4.4
40.98,16.346735,4.4
41.01,3.561853,4.4
41.04,20.13259,4.4
41.07,21.67317,4.4
41.1,75.6641,8.58278
41.13,30.14317,4.4
41.16,8.54992,4.4
41.19,33.1501,5.39908
41.22,31.1706,4.4
41.25,32.18506,4.4
41.28,17.576545,4.4
41.31,14.427922,4.4
41.34,7.480288,4.4
41.37,13.11442,4.4
41.4,18.45053,4.4
41.43,16.70735,4.4
41.46,16.84049,4.4
41.49,22.05222,4.4
41.52,39.6688,5.06644
41.55,9.94485,4.4
41.58,26.615191,4.4
41.61,6.356069,4.4
41.64,14.356783,4.4
41.67,6.20556,4.4
41.7,33.0374,4.4
41.73,26.468291,4.4
41.76,20.724974,4.4
41.79,23.159719,4.4
41.82,22.160507,4.4
41.85,29.318465,4.4
41.88,14.76923,4.4
41.91,16.30213,4.4
41.94,34.07044,4.4
41.97,19.221305,4.4
42,24.10682,4.4
42.03,11.204408,4.4
42.06,28.0913326,4.4
42.09,6.0600587,4.4
42.12,11.0562492,4.4
42.15,17.0616793,4.4
42.18,32.0821191,4.4
42.21,2.149548,4.4
42.24,16.435438,4.4
42.27,22.410509,4.4
42.3,30.63111,4.4
42.33,26.0997,5.00996
42.36,7.16901,4.4
42.39,10.336445,4.4
42.42,0.165268,4.4
42.45,28.108705,4.4
42.48,26.0936002,4.4
42.51,20.111901,4.4
42.54,25.223552,4.4
42.57,23.46251,4.4
42.6,11.74137,4.4
42.63,10.520824,4.4
42.66,30.137461,4.4
42.69,28.0880643,4.4
42.72,4.0841195,4.4
42.75,5.10329,4.4
42.78,21.160509,4.4
42.81,8.369703,4.4
42.84,20.2711,4.4
42.87,9.27156,4.4
42.9,23.76227,4.4
42.93,2.04545,4.4
42.96,3.842493,4.4
42.99,16.388606,4.4
43.02,7.420985,4.4
43.05,9.671172,4.4
43.08,33.61664,4.4
43.11,18.7631,4.4
43.14,70.7412,7.66428
43.17,28.54912,4.4
43.2,33.11687,4.4
43.23,22.657805,4.4
43.26,17.57643,4.4
43.29,10.731006,4.4
43.32,13.36123,4.4
43.35,5.92506,4.4
43.38,81.6116,8.57972
43.41,26.16925,4.4
43.44,21.38432,4.4
43.47,8.824834,4.4
43.5,5.44869,4.4
43.53,35.0537,4.4
43.56,15.10577,4.4
43.59,22.90701,4.4
43.62,25.58727,4.4
43.65,29.06205,4.4
43.68,28.3331,4.4
43.71,28.45689,4.4
43.74,13.35026,4.4
43.77,24.163337,4.4
43.8,18.101643,4.4
43.83,2.0823502,4.4
43.86,11.0976394,4.4
43.89,30.594093,4.4
43.92,30.208195,4.4
43.95,24.799439,4.4
43.98,24.254316,4.4
44.01,8.601322,4.4
44.04,23.3256,4.4
44.07,29.803833,4.4
44.1,22.202993,4.4
44.13,12.104611,4.4
44.16,22.364001,4.4
44.19,14.0664116,4.4
44.22,25.0330216,4.4
44.25,32.0247067,4.4
44.28,26.0251056,4.4
44.31,4.0170136,4.4
44.34,0.0252865,4.4
44.37,26.0379536,4.4
44.4,7.0678512,4.4
44.43,25.175794,4.4
44.46,32.75408,4.4
44.49,18.46024,4.4
44.52,29.234768,4.4
44.55,3.393375,4.4
44.58,8.0995307,4.4
44.61,13.0987337,4.4
44.64,23.138972,4.4
44.67,14.28734,4.4
44.7,15.33207,4.4
44.73,25.20585,4.4
44.76,11.84926,4.4
44.79,27.00807,4.4
44.82,16.70618,4.4
44.85,32.36355,4.4
44.88,30.59779,4.4
44.91,22.20958,4.4
44.94,13.89809,4.4
44.97,26.372389,4.4
45,7.321967,4.4
45.03,13.0797926,4.4
45.06,0.056919,4.4
45.09,13.0483342,4.4
45.12,12.045541,4.4
45.15,14.0584903,4.4
45.18,17.148438,4.4
45.21,28.740011,4.4
45.24,11.167845,4.4
45.27,4.227414,4.4
45.3,29.463064,4.4
45.33,18.41153,4.4
45.36,3.312493,4.4
45.39,22.320802,4.4
45.42,29.498903,4.4
45.45,32.29292,4.4
45.48,24.68227,4.4
45.51,17.9755,4.4
45.54,28.0007,4.69049
45.57,11.90148,4.4
45.6,31.60526,4.4
45.63,24.71665,4.4
45.66,21.11231,4.4
45.69,74.3435,7.30366
45.72,10573,4.4
45.75,30.90435,4.4
45.78,14.52782,4.4
45.81,55.0448,6.24859
45.84,10.02382,4.4
45.87,15.83566,4.4
45.9,22.65588,4.4
45.93,10.1987,4.4
45.96,33.84391,4.4
45.99,36.51002,4.4
46.02,31.32587,4.4
46.05,21.32584,4.4
46.08,11361,4.4
46.11,17.856518,4.4
46.14,31.485608,4.4
46.17,6.479453,4.4
46.2,15.21332,4.4
46.23,21874,4.67697
46.26,28.51541,4.4
46.29,7588,4.4
46.32,27.13254,4.4
46.35,29.316478,4.4
46.38,30.157822,4.4
46.41,6.103846,4.4
46.44,13.0791963,4.4
46.47,9.0693236,4.4
46.5,32.0711027,4.4
46.53,4.113542,4.4
46.56,9.965993,4.4
46.59,3.308626,4.4
46.62,18.155905,4.4
46.65,30.205756,4.4
46.68,31.421148,4.4
46.71,4.43691,4.4
46.74,11.91793,4.4
46.77,36.8562,4.4
46.8,15.58337,4.4
46.83,15.82106,4.4
46.86,13.37139,4.4
46.89,24.562855,4.4
46.92,4.52583,4.4
46.95,3.03963,4.4
46.98,12.03616,4.4
47.01,35.6373,4.4
47.04,23.33869,4.4
47.07,26.684907,4.4
47.1,29.921344,4.4
47.13,20.225445,4.4
47.16,28.173435,4.4
47.19,30.220594,4.4
47.22,5.644739,4.4
47.25,5.9864,4.4
47.28,21.803686,4.4
47.31,20.41962,4.4
47.34,9.18321,4.4
47.37,0.793344,4.4
47.4,32.128911,4.4
47.43,1.104984,4.4
47.46,18.188623,4.4
47.49,16.13935,4.4
47.52,6.353779,4.4
47.55,25.167179,4.4
47.58,8.589978,4.4
47.61,16.16029,4.4
47.64,9.099012,4.4
47.67,25.04603,4.4
47.7,24.0427142,4.4
47.73,13.106002,4.4
47.76,17.17611,4.4
47.79,7.124469,4.4
47.82,25.265595,4.4
47.85,13.0691489,4.4
47.88,13.078162,4.4
47.91,6.191979,4.4
47.94,6.219038,4.4
47.97,26.646765,4.4
48,31.10778,4.4
48.03,30.4435,4.40947
48.06,33.41938,4.4
48.09,3.13021,4.4
48.12,20.48486,4.4
48.15,26.943296,4.4
48.18,9.68533,4.4
48.21,41.7847,4.4
48.24,13.80687,4.4
48.27,13.04229,4.4
48.3,32.32203,4.4
48.33,4860,4.4
48.36,5.506738,4.4
48.39,20.289989,4.4
48.42,20.257194,4.4
48.45,10.308868,4.4
48.48,12.533233,4.4
48.51,4.08103,4.4
48.54,32.2389,4.4
48.57,6.65662,4.4
48.6,25.2247,4.4
48.63,13.04604,4.4
48.66,14.748202,4.4
48.69,18.10975,4.4
48.72,4.85294,4.4
48.75,29.7435,4.4
48.78,36.5951,4.75343
48.81,12.78018,4.4
48.84,12.20958,4.4
48.87,5.05539,4.4
48.9,21.616258,4.4
48.93,15.724964,4.4
48.96,36.4087,4.4
48.99,11488,4.4
49.02,35.20741,4.4
49.05,24.585933,4.4
49.08,28.828413,4.4
49.11,15.976155,4.4
49.14,21.278379,4.4
49.17,1.261176,4.4
49.2,11.07618,4.4
49.23,27.666441,4.4
49.26,10.173027,4.4
49.29,10.0846912,4.4
49.32,8.0635185,4.4
49.35,28.071141,4.4
49.38,23.0944548,4.4
49.41,8.153563,4.4
49.44,0.459133,4.4
49.47,8.98801,4.4
49.5,36.80718,4.4
49.53,21.07836,4.4
49.56,25.807771,4.4
49.59,5.80114,4.4
49.62,27.36391,4.4
49.65,0.710864,4.4
49.68,5.31329,4.4
49.71,20.56655,4.4
49.74,38.7908,4.4
49.77,12.24453,4.4
49.8,36.2033,4.4
49.83,25.0444,4.4
49.86,13.47751,4.4
49.89,16.43719,4.4
49.92,10.85821,4.4
49.95,23.4976,4.4
49.98,10.68299,4.4
50.01,21.536806,4.4
50.04,32.320511,4.4
50.07,29.240724,4.4
50.1,9.248349,4.4
50.13,29.1881,4.4
50.16,18.201747,4.4
50.19,23.243221,4.4
50.22,26.289586,4.4
50.25,17.415728,4.4
50.28,5.686067,4.4
50.31,3.32544,4.4
50.34,5.68468,4.4
50.37,55.0116,5.91706
50.4,40.8063,4.45043
50.43,12.40294,4.4
50.46,8.65247,4.4
50.49,6.18162,4.4
50.52,20487,4.52339
50.55,23.36881,4.4
50.58,17.611717,4.4
50.61,18.32587,4.4
50.64,3.655354,4.4
50.67,28.05385,4.4
50.7,31.62001,4.4
50.73,3.7591,4.4
50.76,19.52595,4.4
50.79,2.73821,4.4
50.82,29.256773,4.4
50.85,15.176689,4.4
50.88,23.256739,4.4
50.91,18.97933,4.4
50.94,0.461322,4.4
50.97,17.163426,4.4
51,4.543507,4.4
51.03,14.239946,4.4
51.06,22.279851,4.4
51.09,30.924468,4.4
51.12,31.2331,4.4
51.15,2.26253,4.4
51.18,21.27346,4.4
51.21,10.58201,4.4
51.24,16.310394,4.4
51.27,25.35964,4.4
51.3,25.881524,4.4
51.33,33.25951,4.4
51.36,25.48271,4.4
51.39,39.2203,4.4
51.42,36.55643,4.4
51.45,38.7576,5.07519
51.48,15.90935,4.4
51.51,30.602807,4.4
51.54,5.30372,4.4
51.57,28.189609,4.4
51.6,9.132979,4.4
51.63,14.0984239,4.4
51.66,26.0837666,4.4
51.69,0.0813493,4.4
51.72,25.0975914,4.4
51.75,28.190762,4.4
51.78,15.36333,4.4
51.81,20.01322,4.4
51.84,15.223812,4.4
51.87,17.469134,4.4
51.9,16.68396,4.4
51.93,27.166437,4.4
51.96,29.102821,4.4
51.99,10.126223,4.4
52.02,18.289511,4.4
52.05,19.98135,4.4
52.08,15.38414,4.4
52.11,13.291434,4.4
52.14,0.110512,4.4
52.17,4.0605501,4.4
52.2,17.0453609,4.4
52.23,32.0374046,4.4
52.26,26.0354818,4.4
52.29,24.0413013,4.4
52.32,18.0576847,4.4
52.35,27.101147,4.4
52.38,21.236147,4.4
52.41,32.15436,4.4
52.44,18.725348,4.4
52.47,12.684519,4.4
52.5,29.04066,4.4
52.53,26.5234,4.4
52.56,20.44516,4.4
52.59,42.5927,4.4
52.62,18456,4.4
52.65,22.25225,4.4
52.68,22.14838,4.4
52.71,30.45349,4.4
52.74,9.91426,4.4
52.77,15.60527,4.4
52.8,11.482385,4.4
52.83,2.424418,4.4
52.86,24.64078,4.4
52.89,2.65554,4.4
52.92,18.249199,4.4
52.95,27.156213,4.4
52.98,19.501665,4.4
53.01,1.250159,4.4
53.04,18.194187,4.4
53.07,20.582388,4.4
53.1,22.05739,4.4
53.13,15.439955,4.4
53.16,20.602235,4.4
53.19,25.91309,4.4
53.22,30.988602,4.4
53.25,9.795819,4.4
53.28,31.39599,4.4
53.31,21.40231,4.4
53.34,36.73685,4.4
53.37,11.03583,4.4
53.4,6.932562,4.4
53.43,18.19636,4.4
53.46,18.81561,4.4
53.49,13.438548,4.4
53.52,31.709252,4.4
53.55,39.31881,4.4
53.58,33.78456,4.4
53.61,11.03403,4.4
53.64,25.41318,4.4
53.67,14.7641,4.4
53.7,39.96518,4.4
53.73,29.44973,4.4
53.76,25.7775,4.4
53.79,21.05025,4.4
53.82,25.09082,4.4
53.85,21.04181,4.4
53.88,27.426357,4.4
53.91,13.47518,4.4
53.94,8.22824,4.4
53.97,25.240021,4.4
54,24.309598,4.4
54.03,15.561449,4.4
54.06,16.69595,4.4
54.09,24.30711,4.4
54.12,22.8667,4.67618
54.15,28.66298,4.4
54.18,15.76742,4.4
54.21,17.41785,4.4
54.24,18.84472,4.4
54.27,11.591484,4.4
54.3,11.728791,4.4
54.33,6.795288,4.4
54.36,28.60151,4.4
54.39,12.43943,4.4
54.42,36.85855,4.4
54.45,38.6526,6.05414
54.48,20.85643,4.4
54.51,17.65987,4.4
54.54,11.93543,4.4
54.57,21.2668,4.4
54.6,10.49898,4.4
54.63,28.4918,4.4
54.66,7.78778,4.4
54.69,24.14392,4.4
54.72,7.12537,4.4
54.75,10.43344,4.4
54.78,21.23805,4.4
54.81,1.02832,4.4
54.84,33.43515,4.4
54.87,7.939524,4.4
54.9,16.07722,4.4
54.93,21.335977,4.4
54.96,18.451196,4.4
54.99,23.76614,4.4
55.02,9.769297,4.4
55.05,7.21838,4.4
55.08,11.18564,4.4
55.11,34.01531,4.4
55.14,47.37,5.68947
55.17,40.1215,4.4
55.2,17.53585,4.4
55.23,32.979397,4.4
55.26,9.11535,4.4
55.29,38.5088,4.4
55.32,11.88449,4.4
55.35,25.986678,4.4
55.38,16.00571,4.4
55.41,3.346529,4.4
55.44,24.324878,4.4
55.47,1.460902,4.4
55.5,9.14086,4.4
55.53,34.69846,4.4
55.56,31.0745,4.69835
55.59,30.85022,4.4
55.62,23.53605,4.4
55.65,26.867746,4.4
55.68,28.833583,4.4
55.71,12.202272,4.4
55.74,9.127914,4.4
55.77,5.120419,4.4
55.8,1.159172,4.4
55.83,25.403453,4.4
55.86,12.0732,4.4
55.89,21.664619,4.4
55.92,31.330582,4.4
55.95,27.23915,4.4
55.98,26.292947,4.4
56.01,16.12557,4.4
56.04,21.22178,4.4
56.07,2.428921,4.4
56.1,8.985276,4.4
56.13,33.4965,4.4
56.16,25.74099,4.4
56.19,9.37792,4.4
56.22,35.56112,4.4
56.25,10.792629,4.4
56.28,17.609766,4.4
56.31,14.93832,4.4
56.34,16.68267,4.4
56.37,33.40016,4.4
56.4,34.5793,4.4
56.43,11.48598,4.4
56.46,44.3352,4.4
56.49,26.44081,4.4
56.52,25.792382,4.4
56.55,0.343844,4.4
56.58,10.349722,4.4
56.61,0.723346,4.4
56.64,20.83443,4.4
56.67,30.65888,4.4
56.7,20.6611,4.4
56.73,38.99999,4.4
56.76,16.2923,4.4
56.79,20.799416,4.4
56.82,25.2402,4.4
56.85,32.52933,4.4
56.88,12.95036,4.4
56.91,6.9824,4.4
56.94,16.96052,4.4
56.97,25.61509,4.4
57,33.19732,4.4
57.03,30.9995,4.4
57.06,84.4334,7.64417
57.09,6.72745,4.4
57.12,18.51713,4.4
57.15,23.31786,4.4
57.18,16.01333,4.4
57.21,15.16362,4.4
57.24,3.932726,4.4
57.27,26.64822,4.4
57.3,21.87331,4.4
57.33,37.11229,4.4
57.36,17.1325,4.4
57.39,29.78048,4.4
57.42,27.46621,4.4
57.45,3.863824,4.4
57.48,30.262283,4.4
57.51,27.141333,4.4
57.54,21.091313,4.4
57.57,24.0760216,4.4
57.6,22.0761136,4.4
57.63,25.0899108,4.4
57.66,21.467552,4.4
57.69,12.0934757,4.4
57.72,10.0927695,4.4
57.75,8.126825,4.4
57.78,10.254928,4.4
57.81,30.238498,4.4
57.84,29.436899,4.4
57.87,14.47762,4.4
57.9,36.5686,4.4
57.93,15.81583,4.4
57.96,5573,4.4
57.99,33.7477,4.4
58.02,19.47575,4.4
58.05,18.24873,4.4
58.08,28.14065,4.4
58.11,64.3272,6.58234
58.14,14.0829,4.4
58.17,38.27232,4.4
58.2,10.27044,4.4
58.23,26.635105,4.4
58.26,23.491014,4.4
58.29,16.58684,4.4
58.32,32.996936,4.4
58.35,12.25031,4.4
58.38,32.08113,4.4
58.41,21.1229,4.4
58.44,25.55085,4.4
58.47,11.42675,4.4
58.5,24.76162,4.4
58.53,1396,4.4
58.56,25.24625,4.4
58.59,26.30648,4.4
58.62,12.31295,4.4
58.65,14.09044,4.4
58.68,8.94764,4.4
58.71,6.94004,4.4
58.74,24.3954,4.93917
58.77,32.86908,4.4
58.8,28.20628,4.4
58.83,24.7607,4.4
58.86,16.786668,4.4
58.89,30.40185,4.4
58.92,11.664584,4.4
58.95,11.12057,4.4
58.98,32.3765,4.4
59.01,21.49338,4.4
59.04,20.55691,4.4
59.07,5.511376,4.4
59.1,19.188254,4.4
59.13,16.131933,4.4
59.16,21.122735,4.4
59.19,5.146953,4.4
59.22,29.222043,4.4
59.25,1.484472,4.4
59.28,23.02255,4.4
59.31,30.76937,4.4
59.34,6.94534,4.4
59.37,23.487604,4.4
59.4,18.298829,4.4
59.43,7.354739,4.4
59.46,11.445241,4.4
59.49,24.34285,4.4
59.52,22.03723,4.4
59.55,25.4884,4.4
59.58,39.2073,4.4
59.61,33.70885,4.4
59.64,10.31948,4.4
59.67,15.6635,4.4
59.7,11.28327,4.4
59.73,5.19514,4.4
59.76,31.14989,4.4
59.79,17.53265,4.4
59.82,29.95614,4.4
59.85,29.544626,4.4
59.88,26.827768,4.4
59.91,17.520708,4.4
59.94,5.06176,4.4
59.97,34.02434,4.4
60,52.5065,5.24466
60.03,19.86844,4.4
60.06,12.735538,4.4
60.09,7.615473,4.4
60.12,7.15542,4.4
60.15,11098,4.4
60.18,24.28148,4.4
60.21,19.07879,4.4
60.24,13.520227,4.4
60.27,25.42251,4.4
60.3,11.69936,4.4
60.33,28.797009,4.4
60.36,13.12632,4.4
60.39,7.91899,4.4
60.42,23.8575,4.4
60.45,5.33335,4.4
60.48,47.3295,4.4
60.51,23.49756,4.4
60.54,29.56185,4.4
60.57,26.35216,4.4
60.6,32.899116,4.4
60.63,4.309849,4.4
60.66,30.465875,4.4
60.69,2288,4.4
60.72,29.226266,4.4
60.75,12.143494,4.4
60.78,21.20474,4.4
60.81,20.45164,4.4
60.84,28.260701,4.4
60.87,8.84036,4.4
60.9,416,4.4
60.93,19.28965,4.4
60.96,12.16839,4.4
60.99,30.24162,4.4
61.02,13.797437,4.4
61.05,11.81131,4.4
61.08,12.04439,4.4
61.11,44.7317,4.4
61.14,20.65134,4.4
61.17,15.7296,4.4
61.2,13.6912,4.4
61.23,4.31688,4.4
61.26,10568,4.4
61.29,39.6224,4.4
61.32,32.94277,4.4
61.35,25.55847,4.4
61.38,10.07119,4.4
61.41,36.1459,4.4
61.44,23.50183,4.4
61.47,6.31229,4.4
61.5,36.17429,4.4
61.53,31.34944,4.4
61.56,24.435456,4.4
61.59,13.08719,4.4
61.62,14.650324,4.4
61.65,29.20319,4.4
61.68,0.408588,4.4
61.71,23.307527,4.4
61.74,7.50587,4.4
61.77,11.62163,4.4
61.8,16.347041,4.4
61.83,22.150715,4.4
61.86,1.0890256,4.4
61.89,0.200149,4.4
61.92,9.120646,4.4
61.95,13.114963,4.4
61.98,32.149467,4.4
62.01,14.243867,4.4
62.04,11.918364,4.4
62.07,19.33268,4.4
62.1,27.29891,4.4
62.13,12.761045,4.4
62.16,12.11344,4.4
62.19,20.17106,4.4
62.22,16.891004,4.4
62.25,22.59503,4.4
62.28,10.405511,4.4
62.31,15.172113,4.4
62.34,31.409989,4.4
62.37,11.734751,4.4
62.4,31.118175,4.4
62.43,32.0769051,4.4
62.46,6.0984751,4.4
62.49,0.121233,4.4
62.52,31.0972423,4.4
62.55,23.15289,4.4
62.58,22.371133,4.4
62.61,22.53799,4.4
62.64,34.85656,4.4
62.67,18.82403,4.4
62.7,5.99414,4.4
62.73,35.39611,4.4
62.76,30.732457,4.4
62.79,27.489362,4.4
62.82,9.94964,4.4
62.85,4.89545,4.4
62.88,46.1803,4.4
62.91,15.03227,4.4
62.94,20.580896,4.4
62.97,33.46557,4.4
63,16.79823,4.4
63.03,19.532569,4.4
63.06,27.313883,4.4
63.09,28.20566,4.4
63.12,3.58178,4.4
63.15,2.45549,4.4
63.18,18.50591,4.4
63.21,1.85856,4.4
63.24,24.26647,4.4
63.27,0.86208,4.4
63.3,0.7523,4.4
63.33,19.65284,4.4
63.36,31.80011,4.4
63.39,18.782499,4.4
63.42,5.366405,4.4
63.45,27.91395,4.4
63.48,14.15385,4.4
63.51,17.01581,4.4
63.54,19.16652,4.4
63.57,31.05459,4.4
63.6,10.55617,4.4
63.63,14.37523,4.4
63.66,31.73424,4.4
63.69,28.7225,4.4
63.72,3.87411,4.4
63.75,25.42873,4.4
63.78,11296,4.4
63.81,21.57156,4.4
63.84,36.1106,4.4
63.87,15.38045,4.4
63.9,23.532031,4.4
63.93,23.244203,4.4
63.96,1.191258,4.4
63.99,32.242474,4.4
64.02,28.645655,4.4
64.05,17.44161,4.4
64.08,6.3125,4.4
64.11,31.308956,4.4
64.14,11.154793,4.4
64.17,24.163986,4.4
64.2,7.653949,4.4
64.23,16.997353,4.4
64.26,10.55399,4.4
64.29,13.19403,4.4
64.32,6.34405,4.4
64.35,5.626354,4.4
64.38,31.480505,4.4
64.41,36.55129,4.4
64.44,19.95982,4.4
64.47,8.64685,4.4
64.5,28.722431,4.4
64.53,9.25965,4.4
64.56,32.98871,4.4
64.59,38.50115,4.4
64.62,21.74856,4.4
64.65,5.497366,4.4
64.68,27.18794,4.4
64.71,1.06682,4.4
64.74,0.547653,4.4
64.77,30.05381,4.4
64.8,13.614367,4.4
64.83,21.367555,4.4
64.86,12.952202,4.4
64.89,23.70698,4.4
64.92,16729,4.4
64.95,19.17923,4.4
64.98,1.460725,4.4
65.01,32.349305,4.4
65.04,17.543065,4.4
65.07,25.26873,4.4
65.1,26.14562,4.4
65.13,15.907722,4.4
65.16,6.11276,4.4
65.19,33.8161,4.4
65.22,25.770687,4.4
65.25,11.540788,4.4
65.28,25.14815,4.4
65.31,32.95049,4.4
65.34,15.463973,4.4
65.37,9.05497,4.4
65.4,25.75274,4.4
65.43,19.02634,4.4
65.46,17.241171,4.4
65.49,1.265433,4.4
65.52,5.10164,4.4
65.55,34.45857,4.4
65.58,28.727561,4.4
65.61,14.353119,4.4
65.64,20.884351,4.4
65.67,19.11468,4.4
65.7,4.9006,4.4
65.73,39.8174,4.4
65.76,23.16285,4.4
65.79,2.49629,4.4
65.82,15.604513,4.4
65.85,11.16375,4.4
65.88,49.2302,4.4
65.91,17.44998,4.4
65.94,6.755017,4.4
65.97,21.612528,4.4
66,20.23981,4.4
66.03,35.87579,4.4
66.06,8.70235,4.4
66.09,3.52687,4.4
66.12,21.04089,4.4
66.15,14.1149,4.4
66.18,9.742782,4.4
66.21,5.27949,4.4
66.24,31.260894,4.4
66.27,15.872652,4.4
66.3,24.17229,4.4
66.33,14.526118,4.4
66.36,8.427472,4.4
66.39,27.97528,4.4
66.42,26.91055,4.4
66.45,12.49003,4.4
66.48,13.56438,4.4
66.51,21.590898,4.4
66.54,27.32161,4.4
66.57,44.2897,4.4
66.6,29.40631,4.4
66.63,34.8812,4.5696
66.66,29.27695,4.4
66.69,32.7762,4.4
66.72,36.11692,4.4
66.75,23.39107,4.4
66.78,12.960593,4.4
66.81,2.962648,4.4
66.84,14.354011,4.4
66.87,32.492752,4.4
66.9,18.75105,4.4
66.93,10.84005,4.4
66.96,23.427258,4.4
66.99,10.515005,4.4
67.02,23.66638,4.4
67.05,12.765253,4.4
67.08,1.747853,4.4
67.11,26.728607,4.4
67.14,40.0821,4.4
67.17,26.584758,4.4
67.2,0.368289,4.4
67.23,21.56064,4.4
67.26,20.442996,4.4
67.29,25.22801,4.4
67.32,17.906739,4.4
67.35,8.90065,4.4
67.38,50.2411,4.4
67.41,30.18545,4.4
67.44,1.27818,4.4
67.47,29.70656,4.4
67.5,34.22892,4.4
67.53,12.3354,4.4
67.56,26.28734,4.4
67.59,17.15531,4.4
67.62,24.281675,4.4
67.65,14.214838,4.4
67.68,5.115688,4.4
67.71,32.22311,4.4
67.74,29.610381,4.4
67.77,25.849643,4.4
67.8,27.25417,4.4
67.83,24.880564,4.4
67.86,25.351058,4.4
67.89,15.652196,4.4
67.92,22.64959,4.4
67.95,42.1338,6.01114
67.98,33.53359,4.4
68.01,24.896166,4.4
68.04,6.25094,4.4
68.07,24.43209,4.4
68.1,32.65564,4.4
68.13,41.3818,6.19531
68.16,9.12512,4.4
68.19,19.10266,4.4
68.22,9.817858,4.4
68.25,14.33487,4.4
68.28,20.87935,4.4
68.31,23.545287,4.4
68.34,14.44549,4.4
68.37,26.10335,4.4
68.4,25.82909,4.4
68.43,0.704796,4.4
68.46,8.203537,4.4
68.49,20.253586,4.4
68.52,7.47205,4.4
68.55,1.25428,4.4
68.58,20.171025,4.4
68.61,28.502184,4.4
68.64,28.10307,4.4
68.67,13.226007,4.4
68.7,20.387399,4.4
68.73,28.438815,4.4
68.76,24.11076,4.4
68.79,25.9208,4.4
68.82,7.91041,4.4
68.85,23.6938,4.4
68.88,34.0896,4.4
68.91,28.577778,4.4
68.94,5.317971,4.4
68.97,18.925582,4.4
69,19.257396,4.4
69.03,24.442695,4.4
69.06,22.49478,4.4
69.09,30.42552,4.4
69.12,33.61218,4.4
69.15,19.51613,4.4
69.18,31.38323,4.4
69.21,12.23999,4.4
69.24,14.30511,4.4
69.27,21.40014,4.4
69.3,14.99352,4.4
69.33,24.5943,4.4
69.36,17.06679,4.4
69.39,25.893409,4.4
69.42,24.69027,4.4
69.45,22.550762,4.4
69.48,13.54388,4.4
69.51,14.97991,4.4
69.54,31.372058,4.4
69.57,3.51165,4.4
69.6,20.390121,4.4
69.63,7.139363,4.4
69.66,16.140023,4.4
69.69,23.176624,4.4
69.72,26.543017,4.4
69.75,21.17089,4.4
69.78,33.47044,4.4
69.81,3.93915,4.4
69.84,31.938427,4.4
69.87,18.45375,4.4
69.9,29.6543,4.4
69.93,33.59763,4.4
69.96,22.51299,4.4
69.99,2.689051,4.4
70.02,5.67841,4.4
70.05,30.14705,4.4
70.08,16.76368,4.4
70.11,15.0522,4.4
70.14,47.3522,5.13344
70.17,7.39711,4.4
70.2,16.28255,4.4
70.23,5.21667,4.4
70.26,22.24211,4.4
70.29,40.9414,4.4
70.32,53.2467,5.85207
70.35,29.47516,4.4
70.38,11.12924,4.4
70.41,18.06274,4.4
70.44,16.47587,4.4
70.47,2.8293,4.4
70.5,26.68584,4.4
70.53,5.957386,4.4
70.56,27.62831,4.4
70.59,29.34263,4.4
70.62,25.27737,4.4
70.65,11.87371,4.4
70.68,26.74841,4.4
70.71,31.81215,4.4
70.74,22.15878,4.4
70.77,32.77238,4.4
70.8,7.59121,4.4
70.83,16.882641,4.4
70.86,25.227547,4.4
70.89,25.284691,4.4
70.92,21.133685,4.4
70.95,26.140848,4.4
70.98,11.244103,4.4
71.01,16.866997,4.4
71.04,36.7747,4.4
71.07,27.1154,4.4
71.1,29.239481,4.4
71.13,22.166458,4.4
71.16,10.334217,4.4
71.19,5.44873,4.4
71.22,17.14215,4.4
71.25,27.23537,4.4
71.28,28.582237,4.4
71.31,28.24248,4.4
71.34,0.726269,4.4
71.37,3.203228,4.4
71.4,27.508548,4.4
71.43,10.566063,4.4
71.46,26.04696,4.4
71.49,7.16764,4.4
71.52,33.24433,4.4
71.55,18.8373,4.4
71.58,7.945114,4.4
71.61,30.897941,4.4
71.64,30.284699,4.4
71.67,0.695224,4.4
71.7,10.12884,4.4
71.73,10.542405,4.4
71.76,16.25508,4.4
71.79,13.04595,4.4
71.82,29.366378,4.4
71.85,9.209455,4.4
71.88,23.285451,4.4
71.91,27.0546,4.4
71.94,3.51734,4.4
71.97,5.890579,4.4
72,18.619892,4.4
72.03,26.48525,4.4
72.06,32.70216,4.4
72.09,24.539932,4.4
72.12,16.30155,4.4
72.15,21.304772,4.4
72.18,12.42852,4.4
72.21,10.73176,4.4
72.24,27.545703,4.4
72.27,6.47103,4.4
72.3,13.82245,4.4
72.33,0.745756,4.4
72.36,9.390144,4.4
72.39,32.21752,4.4
72.42,13.6916,4.4
72.45,4.90398,4.4
72.48,28.30024,4.4
72.51,13.21546,4.4
72.54,15.06229,4.4
72.57,36.64162,4.4
72.6,31.855775,4.4
72.63,9.62554,4.4
72.66,23.14633,4.4
72.69,33.8908,4.4
72.72,26.08025,4.4
72.75,13.32313,4.4
72.78,10.855172,4.4
72.81,22.222399,4.4
72.84,12.196751,4.4
72.87,7.761781,4.4
72.9,15.24702,4.4
72.93,32.783459,4.4
72.96,3.285264,4.4
72.99,13.279104,4.4
73.02,0.139194,4.4
73.05,16.475119,4.4
73.08,27.432211,4.4
73.11,9.34217,4.4
73.14,16.68169,4.4
73.17,13.36338,4.4
73.2,20.4841,4.4
73.23,35.23947,4.4
73.26,11.51109,4.4
73.29,18.763444,4.4
73.32,14.893977,4.4
73.35,15.281288,4.4
73.38,23.12154,4.4
73.41,29.21179,4.4
73.44,9.266901,4.4
73.47,6.108159,4.4
73.5,15.0753156,4.4
73.53,19.0413875,4.4
73.56,7.0436325,4.4
73.59,0.173494,4.4
73.62,30.158832,4.4
73.65,3.0913076,4.4
73.68,32.67628,4.4
73.71,26.324645,4.4
73.74,2.19969,4.4
73.77,11.468801,4.4
73.8,4.03333,4.4
73.83,32.42714,4.4
73.86,11.726334,4.4
73.89,9.983646,4.4
73.92,20.300558,4.4
73.95,22.03396,4.4
73.98,13.160601,4.4
74.01,30.124128,4.4
74.04,18.123916,4.4
74.07,0.0880948,4.4
74.1,13.286061,4.4
74.13,10.93166,4.4
74.16,20.211696,4.4
74.19,33.27451,4.4
74.22,26.539163,4.4
74.25,17.31662,4.4
74.28,26.235473,4.4
74.31,1.69059,4.4
74.34,8.99451,4.4
74.37,1.685171,4.4
74.4,3.65066,4.4
74.43,10.49117,4.4
74.46,16.387332,4.4
74.49,20.455136,4.4
74.52,8.508831,4.4
74.55,4.08979,4.4
74.58,23.20917,4.4
74.61,5.238683,4.4
74.64,23.702747,4.4
74.67,28.65247,4.4
74.7,22.594938,4.4
74.73,20.863297,4.4
74.76,14.224188,4.4
74.79,31.16695,4.4
74.82,15.342949,4.4
74.85,10.85127,4.4
74.88,5.34423,4.4
74.91,9.329778,4.4
74.94,31.42552,4.4
74.97,20.80461,4.4
75,17.42711,4.4
